Voltage [V];power [mW];;;Average
0.01;9;8;8;8.33
0.02;17;18;17;17.33
0.05;27;27;28;27.33
0.08;38;39;39;38.67
0.1;46;46;46;46.00
0.12;54;54;55;54.33
0.18;75;74;75;74.67
0.2;80;81;81;80.67
0.3;115;115;116;115.33
0.5;185;184;184;184.33
0.8;284;285;285;284.67
1;348;347;349;348.00
1.5;497;494;498;496.33
2;632;627;634;631.00
2.5;755;749;757;753.67
3;867;859;869;865.00
3.5;970;960;971;967.00
4;1063;1054;1062;1059.67
4.5;1150;1143;1150;1147.67
5;1230;1227;1228;1228.33
