AE-588-300-2
Integration time [ms]:   9,690
Averaging Nr. [scans]: 100
Smoothing Nr. [pixels]: 0
Data measured with spectrometer [name]: 7420287SP
Wave   ;Sample   ;Dark     ;Reference;Absorbance
[nm]   ;[counts] ;[counts] ;[counts] ;[A.U]

 179,38;  -22,955;   -7,110;    8,998; 5,00000
 179,98;  -24,930;   -6,520;    6,195; 5,00000
 180,58;  -15,700;   -5,360;   15,793; 5,00000
 181,18;  -21,215;   -6,600;   10,880; 5,00000
 181,78;  -31,919;   -5,730;    0,149; 5,00000
 182,38;  -34,641;   -5,470;   -1,284; 5,00000
 182,97;  -31,672;   -7,650;    0,032; 5,00000
 183,57;  -32,971;   -5,780;   -2,994; 5,00000
 184,17;  -43,498;   -6,950;  -14,352; 0,00000
 184,77;  -45,722;   -7,260;  -17,755; 0,00000
 185,37;  -55,515;   -6,010;  -21,290; 0,00000
 185,97;  -59,538;   -7,850;  -29,278; 0,00000
 186,57;  -56,777;   -7,270;  -26,893; 0,00000
 187,17;  -68,965;   -6,520;  -37,024; 0,00000
 187,77;  -90,664;   -7,760;  -59,634; 0,00000
 188,37;  -83,068;   -6,630;  -51,348; 0,00000
 188,97; -103,273;   -7,450;  -72,675; 0,00000
 189,57; -103,494;   -6,490;  -73,390; 0,00000
 190,17; -121,625;   -6,540;  -89,085; 0,00000
 190,77; -127,975;   -8,530;  -97,963; 0,00000
 191,37; -141,878;   -6,100; -113,717; 0,00000
 191,96; -153,397;   -6,760; -124,998; 0,00000
 192,56; -192,978;   -7,360; -165,961; 0,00000
 193,16; -183,205;   -6,490; -154,105; 0,00000
 193,76; -159,430;   -8,480; -130,068; 0,00000
 194,36; -210,839;   -6,480; -183,996; 0,00000
 194,96; -212,506;   -6,370; -185,208; 0,00000
 195,56; -166,387;   -7,450; -137,778; 0,00000
 196,16; -124,329;   -6,530;  -94,179; 0,00000
 196,76;  -72,397;   -7,620;  -44,472; 0,00000
 197,36;  -61,680;   -6,760;  -32,495; 0,00000
 197,95;  -40,912;   -6,630;   -9,158; 0,00000
 198,55;  -48,679;   -7,140;  -17,366; 0,00000
 199,15;  -40,898;   -5,420;   -9,398; 0,00000
 199,75;  -30,517;   -7,280;    0,600; 5,00000
 200,35;  -43,349;   -6,500;  -12,091; 0,00000
 200,95;  -35,829;   -5,890;   -0,912; 5,00000
 201,55;  -36,985;   -7,490;   -4,202; 5,00000
 202,15;  -35,491;   -5,870;   -6,758; 0,00000
 202,74;  -25,245;   -6,560;    7,284; 5,00000
 203,34;  -34,197;   -6,450;   -3,337; 5,00000
 203,94;  -15,675;   -5,190;   15,602; 5,00000
 204,54;  -33,730;   -7,300;   -1,539; 5,00000
 205,14;  -21,575;   -5,430;   11,164; 5,00000
 205,74;  -27,357;   -6,400;    6,079; 5,00000
 206,34;  -26,483;   -6,650;    3,591; 5,00000
 206,93;  -24,296;   -6,110;   10,322; 5,00000
 207,53;  -27,359;   -6,770;    7,281; 5,00000
 208,13;  -30,187;   -5,560;    2,349; 5,00000
 208,73;  -20,845;   -5,300;   13,062; 5,00000
 209,33;  -36,790;   -7,080;   -3,437; 5,00000
 209,93;  -21,090;   -5,400;    9,487; 5,00000
 210,52;  -26,886;   -6,060;    6,322; 5,00000
 211,12;  -14,647;   -5,430;   19,505; 5,00000
 211,72;  -23,807;   -5,290;    8,287; 5,00000
 212,32;  -21,779;   -6,530;   12,050; 5,00000
 212,92;  -24,852;   -4,650;    7,862; 5,00000
 213,52;  -23,668;   -5,930;    9,794; 5,00000
 214,11;  -25,780;   -6,380;    6,579; 5,00000
 214,71;  -18,120;   -4,070;   15,585; 5,00000
 215,31;  -27,083;   -6,580;    6,759; 5,00000
 215,91;   -8,668;   -4,390;   25,378; 5,00000
 216,51;  -23,550;   -4,670;   12,137; 5,00000
 217,10;  -22,276;   -5,810;   12,000; 5,00000
 217,70;  -28,727;   -5,080;    6,749; 5,00000
 218,30;  -15,892;   -6,050;   19,058; 5,00000
 218,90;  -27,722;   -5,200;    7,512; 5,00000
 219,50;  -16,848;   -4,900;   19,810; 5,00000
 220,09;  -18,204;   -6,880;   19,293; 5,00000
 220,69;  -17,113;   -5,070;   17,937; 5,00000
 221,29;  -17,858;   -5,340;   22,893; 5,00000
 221,89;  -33,302;   -5,260;    1,006; 5,00000
 222,49;  -19,716;   -4,140;   21,670; 5,00000
 223,08;  -17,850;   -5,890;   20,255; 5,00000
 223,68;  -15,008;   -4,880;   22,503; 5,00000
 224,28;  -26,824;   -5,320;   10,607; 5,00000
 224,88;  -22,529;   -5,500;   12,982; 5,00000
 225,47;  -26,320;   -4,220;   12,209; 5,00000
 226,07;  -17,804;   -5,990;   20,955; 5,00000
 226,67;  -20,731;   -4,400;   12,554; 5,00000
 227,27;  -18,196;   -4,480;   22,967; 5,00000
 227,87;  -23,210;   -6,030;   16,357; 5,00000
 228,46;  -17,220;   -4,320;   22,787; 5,00000
 229,06;  -24,357;   -5,700;   15,349; 5,00000
 229,66;  -14,144;   -5,400;   21,405; 5,00000
 230,26;  -22,658;   -4,190;   16,324; 5,00000
 230,85;  -28,280;   -5,860;   10,231; 5,00000
 231,45;  -27,287;   -4,350;   12,619; 5,00000
 232,05;  -19,509;   -4,990;   21,312; 5,00000
 232,64;  -29,133;   -5,810;    8,131; 5,00000
 233,24;  -33,567;   -3,940;    4,103; 5,00000
 233,84;  -38,612;   -5,850;    1,998; 5,00000
 234,44;  -29,675;   -4,990;    7,686; 5,00000
 235,03;  -45,295;   -4,340;   -4,888; 0,00000
 235,63;  -35,148;   -6,290;    3,558; 5,00000
 236,23;  -23,049;   -3,870;   18,681; 5,00000
 236,83;  -24,411;   -4,960;   19,586; 5,00000
 237,42;  -23,986;   -4,900;   16,151; 5,00000
 238,02;  -40,049;   -4,130;    2,290; 5,00000
 238,62;  -24,152;   -6,100;   19,914; 5,00000
 239,21;  -25,696;   -4,420;   15,043; 5,00000
 239,81;  -25,469;   -4,890;   19,874; 5,00000
 240,41;  -29,429;   -5,200;   14,526; 5,00000
 241,00;  -29,790;   -3,940;   17,511; 5,00000
 241,60;  -31,191;   -6,280;   13,188; 5,00000
 242,20;  -26,463;   -4,720;   17,453; 5,00000
 242,80;  -29,386;   -4,690;   16,153; 5,00000
 243,39;  -20,344;   -6,000;   24,427; 5,00000
 243,99;  -32,759;   -4,510;   13,975; 5,00000
 244,59;  -29,915;   -6,250;   16,356; 5,00000
 245,18;  -31,170;   -5,160;   12,491; 5,00000
 245,78;  -35,313;   -5,160;   14,983; 5,00000
 246,38;  -35,360;   -6,590;    9,541; 5,00000
 246,97;  -21,330;   -4,720;   24,419; 5,00000
 247,57;  -21,963;   -5,680;   26,590; 5,00000
 248,17;  -22,399;   -5,180;   24,002; 5,00000
 248,76;  -26,669;   -4,270;   23,001; 5,00000
 249,36;  -20,207;   -7,360;   30,085; 5,00000
 249,96;  -24,320;   -5,160;   25,699; 5,00000
 250,55;  -13,401;   -5,180;   38,583; 5,00000
 251,15;  -22,118;   -6,350;   25,134; 5,00000
 251,75;  -16,916;   -3,970;   34,937; 5,00000
 252,34;  -24,048;   -5,740;   29,584; 5,00000
 252,94;   -8,589;   -4,710;   42,798; 5,00000
 253,54;  -24,575;   -4,830;   29,314; 5,00000
 254,13;  -20,464;   -6,310;   30,364; 5,00000
 254,73;   -7,672;   -4,130;   46,638; 5,00000
 255,32;  -30,413;   -5,920;   25,871; 5,00000
 255,92;  -13,829;   -5,050;   39,637; 5,00000
 256,52;  -19,483;   -4,610;   37,837; 5,00000
 257,11;  -21,261;   -6,680;   35,585; 5,00000
 257,71;   -5,506;   -4,610;   52,756; 5,00000
 258,31;  -18,135;   -5,460;   43,092; 5,00000
 258,90;  -22,047;   -6,310;   36,637; 5,00000
 259,50;  -16,022;   -5,030;   45,970; 5,00000
 260,09;  -19,932;   -6,180;   41,212; 5,00000
 260,69;  -15,395;   -4,680;   42,332; 5,00000
 261,29;  -16,681;   -5,280;   47,542; 5,00000
 261,88;  -18,017;   -6,120;   43,425; 5,00000
 262,48;  -17,123;   -5,140;   47,847; 5,00000
 263,07;  -21,475;   -6,100;   45,442; 5,00000
 263,67;  -16,783;   -5,540;   51,237; 5,00000
 264,27;   -5,937;   -5,320;   63,621; 5,00000
 264,86;  -13,524;   -6,770;   55,273; 5,00000
 265,46;  -12,645;   -5,420;   60,830; 5,00000
 266,05;   -4,845;   -5,650;   69,638; 1,97076
 266,65;  -14,756;   -5,700;   59,048; 5,00000
 267,24;  -12,938;   -4,180;   64,223; 5,00000
 267,84;  -16,323;   -6,430;   63,285; 5,00000
 268,44;  -23,130;   -4,380;   54,619; 5,00000
 269,03;  -13,946;   -5,730;   67,128; 5,00000
 269,63;  -13,454;   -6,560;   67,713; 5,00000
 270,22;  -11,312;   -3,970;   72,058; 5,00000
 270,82;  -17,110;   -6,230;   70,595; 5,00000
 271,41;  -11,924;   -4,610;   76,443; 5,00000
 272,01;  -24,472;   -4,490;   69,582; 5,00000
 272,61;   -8,123;   -6,490;   88,096; 5,00000
 273,20;  -12,448;   -4,670;   85,573; 5,00000
 273,80;  -11,451;   -6,180;   92,503; 5,00000
 274,39;   -9,391;   -5,030;   95,260; 5,00000
 274,99;  -13,030;   -4,470;   97,555; 5,00000
 275,58;   -8,165;   -5,830;  108,358; 5,00000
 276,18;  -11,166;   -4,390;  106,780; 5,00000
 276,77;   -2,827;   -5,880;  118,103; 1,60864
 277,37;   -7,150;   -5,920;  117,405; 5,00000
 277,96;  -11,629;   -5,320;  120,802; 5,00000
 278,56;   -1,943;   -5,710;  134,945; 1,57218
 279,15;   -6,621;   -4,950;  134,785; 5,00000
 279,75;  -20,450;   -4,870;  131,721; 5,00000
 280,34;   -6,076;   -6,060;  150,967; 5,00000
 280,94;   -6,526;   -4,760;  164,667; 5,00000
 281,53;  -17,879;   -5,510;  171,941; 5,00000
 282,13;  -15,600;   -5,010;  194,309; 5,00000
 282,73;   -6,926;   -4,240;  241,090; 5,00000
 283,32;   -7,086;   -5,800;  284,850; 5,00000
 283,92;  -13,268;   -3,980;  339,716; 5,00000
 284,51;   -2,322;   -5,290;  436,618; 2,17291
 285,10;  -11,317;   -6,110;  543,417; 5,00000
 285,70;  -11,817;   -4,410;  693,699; 5,00000
 286,29;   -7,006;   -5,850;  890,617; 5,00000
 286,89;    2,069;   -4,520; 1115,283; 2,23029
 287,48;  -15,438;   -4,870; 1328,754; 5,00000
 288,08;   -7,726;   -5,910; 1560,469; 5,00000
 288,67;  -13,199;   -4,490; 1776,761; 5,00000
 289,27;  -15,223;   -5,600; 1962,901; 5,00000
 289,86;   -0,096;   -4,970; 2117,730; 2,63896
 290,46;   -4,170;   -4,980; 2195,367; 3,43396
 291,05;   -2,378;   -6,580; 2213,952; 2,72302
 291,65;   -4,490;   -3,890; 2278,119; 5,00000
 292,24;   -2,202;   -5,590; 2480,342; 2,86551
 292,84;   -4,751;   -6,110; 2882,134; 3,32754
 293,43;   -0,259;   -4,350; 3506,612; 2,93357
 294,03;    0,646;   -6,250; 4279,066; 2,79339
 294,62;    5,393;   -3,900; 5178,679; 2,74637
 295,21;   11,860;   -6,020; 6114,689; 2,53442
 295,81;   20,340;   -6,160; 7028,427; 2,42400
 296,40;   19,170;   -4,770; 7862,193; 2,51668
 297,00;   40,035;   -5,680; 8549,895; 2,27219
 297,59;   54,380;   -5,440; 8965,089; 2,17597
 298,19;   73,254;   -5,120; 9274,428; 2,07335
 298,78;   75,441;   -6,640; 9809,121; 2,07768
 299,37;   97,562;   -3,870;10564,807; 2,01784
 299,97;  133,271;   -6,380;11220,006; 1,90520
 300,56;  145,399;   -4,940;11673,824; 1,89032
 301,16;  168,145;   -5,410;12015,332; 1,84049
 301,75;  189,499;   -6,700;12357,715; 1,79948
 302,35;  208,374;   -4,500;12780,091; 1,77856
 302,94;  230,802;   -5,790;13216,469; 1,74731
 303,53;  273,612;   -5,510;13577,342; 1,68720
 304,13;  296,721;   -4,390;13858,420; 1,66312
 304,72;  319,840;   -4,760;14134,757; 1,63909
 305,32;  353,740;   -4,930;14383,817; 1,60333
 305,91;  375,087;   -4,660;14619,439; 1,58557
 306,50;  408,027;   -6,610;14802,670; 1,55287
 307,10;  436,710;   -4,000;14978,785; 1,53144
 307,69;  463,232;   -5,750;15123,970; 1,50868
 308,28;  483,917;   -4,480;15203,757; 1,49331
 308,88;  514,766;   -4,830;15309,841; 1,46944
 309,47;  523,564;   -5,810;15345,229; 1,46238
 310,07;  546,505;   -4,750;15360,771; 1,44519
 310,66;  566,978;   -5,730;15396,962; 1,42966
 311,25;  604,957;   -5,110;15490,037; 1,40482
 311,85;  626,571;   -4,860;15598,062; 1,39288
 312,44;  674,266;   -6,680;15731,047; 1,36383
 313,03;  733,684;   -4,650;15872,220; 1,33251
 313,63;  790,657;   -5,410;16008,396; 1,30355
 314,22;  859,992;   -5,320;16089,435; 1,26951
 314,81;  939,319;   -4,550;16143,154; 1,23320
 315,41; 1026,687;   -6,360;16195,409; 1,19544
 316,00; 1118,288;   -4,980;16203,836; 1,15927
 316,59; 1219,125;   -5,590;16209,926; 1,12190
 317,19; 1328,773;   -6,090;16181,987; 1,08376
 317,78; 1448,410;   -4,390;16235,057; 1,04837
 318,37; 1564,989;   -6,640;16408,174; 1,01889
 318,97; 1702,574;   -5,200;16631,344; 0,98863
 319,56; 1849,571;   -4,420;16923,391; 0,96049
 320,15; 1987,500;   -5,910;17168,990; 0,93530
 320,75; 2124,544;   -4,420;17406,980; 0,91267
 321,34; 2246,185;   -5,770;17556,967; 0,89203
 321,93; 2374,405;   -5,350;17708,092; 0,87177
 322,53; 2471,261;   -3,880;17793,021; 0,85674
 323,12; 2566,596;   -6,090;17860,770; 0,84166
 323,71; 2659,568;   -4,820;17853,564; 0,82624
 324,31; 2748,073;   -4,460;17858,896; 0,81223
 324,90; 2836,584;   -6,030;17859,250; 0,79829
 325,49; 2905,452;   -4,500;17828,246; 0,78733
 326,09; 2967,009;   -5,790;17771,186; 0,77669
 326,68; 3041,620;   -4,620;17735,041; 0,76518
 327,27; 3106,704;   -4,600;17659,313; 0,75414
 327,86; 3181,153;   -5,770;17643,656; 0,74336
 328,46; 3249,581;   -4,120;17628,922; 0,73395
 329,05; 3321,351;   -5,700;17606,910; 0,72376
 329,64; 3385,799;   -5,220;17584,555; 0,71493
 330,23; 3464,382;   -4,640;17566,141; 0,70458
 330,83; 3493,589;   -6,180;17479,148; 0,69863
 331,42; 3560,826;   -3,990;17390,023; 0,68836
 332,01; 3589,101;   -6,100;17273,080; 0,68180
 332,61; 3625,300;   -5,490;17128,625; 0,67386
 333,20; 3658,482;   -4,450;17016,805; 0,66716
 333,79; 3707,575;   -6,430;17003,967; 0,66087
 334,38; 3795,724;   -5,440;17104,178; 0,65332
 334,98; 3895,102;   -4,980;17284,174; 0,64670
 335,57; 3999,886;   -6,500;17528,475; 0,64115
 336,16; 4087,828;   -4,050;17684,371; 0,63577
 336,75; 4174,949;   -5,500;17804,752; 0,62945
 337,34; 4235,793;   -5,350;17858,355; 0,62449
 337,94; 4286,417;   -4,520;17874,357; 0,61979
 338,53; 4331,674;   -6,340;17871,621; 0,61503
 339,12; 4355,504;   -4,190;17810,111; 0,61131
 339,71; 4381,444;   -5,130;17711,260; 0,60625
 340,31; 4385,531;   -5,420;17551,670; 0,60189
 340,90; 4373,513;   -4,710;17330,453; 0,59763
 341,49; 4299,013;   -6,270;16924,146; 0,59467
 342,08; 4212,425;   -5,020;16494,426; 0,59242
 342,67; 4181,181;   -5,610;16237,401; 0,58879
 343,27; 4207,009;   -5,550;16271,576; 0,58703
 343,86; 4288,395;   -4,290;16469,127; 0,58405
 344,45; 4353,391;   -5,490;16656,480; 0,58235
 345,04; 4416,464;   -4,790;16774,129; 0,57922
 345,63; 4452,214;   -4,500;16811,758; 0,57671
 346,23; 4486,342;   -6,400;16813,229; 0,57330
 346,82; 4482,584;   -4,430;16755,629; 0,57232
 347,41; 4488,224;   -5,820;16664,383; 0,56930
 348,00; 4466,306;   -5,440;16497,873; 0,56709
 348,59; 4436,317;   -4,310;16322,787; 0,56546
 349,19; 4413,332;   -6,890;16211,792; 0,56457
 349,78; 4411,541;   -4,490;16092,343; 0,56171
 350,37; 4406,231;   -5,390;15990,562; 0,55941
 350,96; 4385,649;   -5,710;15871,996; 0,55819
 351,55; 4359,015;   -3,900;15672,729; 0,55548
 352,14; 4335,201;   -6,120;15517,991; 0,55338
 352,74; 4298,318;   -4,590;15329,781; 0,55190
 353,33; 4247,473;   -4,630;15083,347; 0,55003
 353,92; 4182,964;   -6,470;14803,760; 0,54841
 354,51; 4116,166;   -4,210;14536,847; 0,54766
 355,10; 4065,286;   -5,370;14310,247; 0,54615
 355,69; 4030,674;   -4,430;14173,033; 0,54574
 356,28; 4054,735;   -5,030;14197,122; 0,54385
 356,88; 4071,901;   -6,960;14259,414; 0,54377
 357,47; 4119,068;   -4,450;14335,252; 0,54127
 358,06; 4149,156;   -5,810;14383,135; 0,53946
 358,65; 4166,685;   -5,410;14395,193; 0,53803
 359,24; 4163,383;   -4,760;14324,442; 0,53628
 359,83; 4165,180;   -5,780;14257,117; 0,53397
 360,42; 4161,041;   -4,390;14180,060; 0,53215
 361,01; 4160,359;   -5,410;14106,137; 0,52988
 361,61; 4132,483;   -5,790;13997,793; 0,52942
 362,20; 4124,222;   -4,580;13887,937; 0,52696
 362,79; 4086,551;   -5,940;13684,633; 0,52443
 363,38; 4025,751;   -4,890;13428,544; 0,52281
 363,97; 3947,787;   -4,250;13042,817; 0,51869
 364,56; 3827,884;   -6,270;12641,035; 0,51833
 365,15; 3780,260;   -4,670;12473,142; 0,51808
 365,74; 3854,973;   -6,200;12681,175; 0,51665
 366,33; 4003,007;   -5,230;13044,999; 0,51266
 366,92; 4103,982;   -4,710;13285,856; 0,50984
 367,51; 4136,882;   -5,970;13346,582; 0,50826
 368,11; 4143,614;   -4,020;13287,397; 0,50577
 368,70; 4171,271;   -5,120;13288,441; 0,50284
 369,29; 4175,409;   -4,850;13200,765; 0,49956
 369,88; 4135,868;   -4,640;12994,266; 0,49685
 370,47; 4103,830;   -5,700;12887,893; 0,49658
 371,06; 4104,360;   -4,480;12828,213; 0,49460
 371,65; 4121,134;   -4,740;12778,499; 0,49112
 372,24; 4100,763;   -6,210;12679,279; 0,48979
 372,83; 4081,033;   -4,530;12579,400; 0,48856
 373,42; 4081,082;   -6,220;12480,546; 0,48501
 374,01; 4070,522;   -5,240;12390,730; 0,48307
 374,60; 4087,968;   -4,640;12375,426; 0,48072
 375,19; 4095,078;   -5,830;12350,048; 0,47899
 375,78; 4089,940;   -3,930;12327,173; 0,47887
 376,37; 4141,422;   -5,020;12448,391; 0,47761
 376,96; 4234,677;   -5,550;12699,714; 0,47659
 377,55; 4355,562;   -4,650;13002,878; 0,47469
 378,14; 4488,621;   -6,260;13329,712; 0,47231
 378,73; 4616,742;   -4,040;13644,688; 0,47038
 379,32; 4634,187;   -5,260;13588,305; 0,46687
 379,91; 4591,115;   -5,860;13392,578; 0,46458
 380,50; 4572,516;   -4,950;13318,916; 0,46401
 381,09; 4515,688;   -5,580;13148,945; 0,46381
 381,68; 4519,949;   -4,800;13154,610; 0,46364
 382,27; 4564,329;   -5,540;13204,130; 0,46099
 382,86; 4554,583;   -6,540;13085,866; 0,45795
 383,45; 4480,610;   -4,510;12889,805; 0,45862
 384,04; 4412,699;   -5,600;12605,229; 0,45549
 384,63; 4277,927;   -5,930;12225,111; 0,45563
 385,22; 4192,498;   -4,820;11973,016; 0,45541
 385,81; 4234,441;   -6,550;12081,691; 0,45490
 386,40; 4368,408;   -4,610;12450,788; 0,45458
 386,99; 4536,181;   -5,510;12898,586; 0,45351
 387,58; 4663,856;   -6,170;13250,120; 0,45310
 388,17; 4739,634;   -4,490;13438,625; 0,45234
 388,76; 4697,065;   -5,690;13266,298; 0,45058
 389,35; 4608,578;   -4,390;12970,575; 0,44913
 389,94; 4602,066;   -5,090;12965,490; 0,44953
 390,53; 4638,996;   -6,660;13052,604; 0,44887
 391,12; 4728,583;   -4,090;13248,967; 0,44721
 391,71; 4908,055;   -5,660;13687,788; 0,44510
 392,30; 5103,995;   -4,980;14159,938; 0,44288
 392,89; 5094,482;   -4,920;14090,508; 0,44156
 393,48; 4846,849;   -6,070;13416,310; 0,44183
 394,07; 4706,679;   -4,390;12990,309; 0,44065
 394,66; 4653,966;   -5,230;12821,199; 0,43979
 395,25; 4582,537;   -5,410;12623,845; 0,43976
 395,84; 4576,486;   -3,960;12605,530; 0,43979
 396,43; 4661,477;   -6,160;12805,306; 0,43850
 397,01; 4835,982;   -4,690;13258,662; 0,43775
 397,60; 5095,222;   -4,390;13915,010; 0,43608
 398,19; 5261,176;   -6,520;14320,738; 0,43454
 398,78; 5137,279;   -4,780;13913,148; 0,43244
 399,37; 4940,359;   -5,500;13338,616; 0,43105
 399,96; 4794,281;   -4,400;12904,796; 0,42978
 400,55; 4747,302;   -5,160;12782,150; 0,42986
 401,14; 4683,459;   -6,120;12560,469; 0,42808
 401,73; 4580,678;   -4,310;12303,928; 0,42886
 402,32; 4547,804;   -5,010;12197,703; 0,42818
 402,91; 4528,016;   -5,470;12126,181; 0,42749
 403,49; 4530,206;   -4,330;12114,188; 0,42692
 404,08; 4540,106;   -6,270;12130,782; 0,42645
 404,67; 4566,814;   -4,520;12163,096; 0,42516
 405,26; 4483,010;   -5,270;11984,179; 0,42672
 405,85; 4291,804;   -5,410;11429,987; 0,42506
 406,44; 4118,415;   -4,180;10996,220; 0,42624
 407,03; 4083,140;   -6,090;10907,043; 0,42631
 407,62; 4143,243;   -4,930;11104,370; 0,42783
 408,20; 4292,314;   -5,010;11478,955; 0,42689
 408,79; 4331,589;   -6,000;11509,460; 0,42403
 409,38; 4280,618;   -4,270;11388,948; 0,42471
 409,97; 4166,862;   -5,550;11076,298; 0,42423
 410,56; 4024,794;   -4,660;10733,605; 0,42569
 411,15; 3926,871;   -4,520;10500,056; 0,42683
 411,73; 3879,164;   -6,800;10382,046; 0,42707
 412,32; 3857,825;   -4,650;10360,567; 0,42871
 412,91; 3819,609;   -5,740;10265,272; 0,42894
 413,50; 3747,141;   -5,650;10075,335; 0,42915
 414,09; 3632,773;   -4,440; 9793,643; 0,43037
 414,68; 3564,900;   -6,240; 9629,455; 0,43108
 415,26; 3561,253;   -4,460; 9654,133; 0,43277
 415,85; 3615,117;   -5,050; 9865,457; 0,43561
 416,44; 3670,936;   -6,190;10028,993; 0,43602
 417,03; 3698,534;   -4,610;10144,815; 0,43787
 417,62; 3728,619;   -5,980;10267,702; 0,43948
 418,21; 3787,243;   -4,100;10469,013; 0,44128
 418,79; 3846,795;   -3,930;10688,229; 0,44352
 419,38; 3905,617;   -5,820;10904,525; 0,44550
 419,97; 4006,489;   -3,780;11285,066; 0,44948
 420,56; 4217,439;   -5,950;11926,382; 0,45106
 421,15; 4439,249;   -5,110;12596,360; 0,45261
 421,73; 4403,652;   -4,140;12471,731; 0,45185
 422,32; 4156,753;   -6,020;11833,822; 0,45396
 422,91; 3938,972;   -4,410;11259,720; 0,45583
 423,50; 3803,569;   -5,380;10914,259; 0,45740
 424,08; 3740,490;   -6,220;10830,341; 0,46124
 424,67; 3702,632;   -4,380;10776,268; 0,46362
 425,26; 3575,201;   -6,480;10476,968; 0,46642
 425,85; 3464,637;   -5,190;10196,813; 0,46838
 426,43; 3430,833;   -5,300;10211,754; 0,47326
 427,02; 3517,969;   -5,340;10496,108; 0,47430
 427,61; 3517,115;   -4,330;10585,611; 0,47817
 428,20; 3595,269;   -5,260;10858,340; 0,47961
 428,79; 3812,758;   -5,140;11600,280; 0,48284
 429,37; 4155,640;   -3,820;12696,931; 0,48479
 429,96; 4206,508;   -6,360;12891,401; 0,48594
 430,55; 4002,294;   -4,620;12251,905; 0,48556
 431,13; 3609,244;   -5,180;11069,716; 0,48630
 431,72; 3262,973;   -5,530;10133,215; 0,49164
 432,31; 3172,851;   -4,780; 9925,630; 0,49486
 432,90; 3371,400;   -5,750;10643,863; 0,49878
 433,48; 3636,236;   -4,950;11457,544; 0,49804
 434,07; 3379,075;   -5,120;10676,022; 0,49916
 434,66; 3231,178;   -6,690;10276,490; 0,50187
 435,25; 3163,735;   -4,470;10095,280; 0,50350
 435,83; 3178,831;   -6,100;10233,827; 0,50720
 436,42; 3154,781;   -4,960;10170,119; 0,50789
 437,01; 3028,451;   -4,610; 9786,746; 0,50896
 437,59; 2992,191;   -6,640; 9749,056; 0,51231
 438,18; 3032,650;   -4,720; 9920,453; 0,51424
 438,77; 3002,872;   -4,960; 9843,400; 0,51511
 439,35; 2932,934;   -4,970; 9651,257; 0,51677
 439,94; 2898,234;   -4,330; 9618,989; 0,52054
 440,53; 3120,488;   -6,110;10410,790; 0,52267
 441,11; 3388,741;   -5,210;11278,899; 0,52176
 441,70; 3321,468;   -4,840;11069,691; 0,52236
 442,29; 3229,745;   -5,300;10785,061; 0,52316
 442,87; 3277,672;   -4,390;11041,802; 0,52707
 443,46; 3291,344;   -6,060;11081,647; 0,52667
 444,05; 3173,971;   -4,660;10754,773; 0,52955
 444,63; 3109,106;   -4,780;10548,992; 0,53011
 445,22; 3020,160;   -6,370;10276,085; 0,53115
 445,81; 3015,841;   -4,390;10333,277; 0,53438
 446,39; 3006,571;   -4,640;10281,625; 0,53352
 446,98; 2848,700;   -4,960; 9820,440; 0,53695
 447,57; 2748,713;   -3,710; 9485,115; 0,53750
 448,15; 2687,443;   -6,640; 9340,465; 0,54027
 448,74; 2712,719;   -4,560; 9475,474; 0,54268
 449,33; 2711,656;   -5,240; 9513,834; 0,54452
 449,91; 2677,174;   -5,460; 9419,184; 0,54570
 450,50; 2634,463;   -4,760; 9262,544; 0,54548
 451,08; 2576,882;   -6,070; 9124,941; 0,54840
 451,67; 2587,330;   -4,300; 9156,545; 0,54836
 452,26; 2522,162;   -3,990; 8956,534; 0,54987
 452,84; 2411,006;   -5,810; 8562,532; 0,54965
 453,43; 2336,391;   -4,520; 8353,617; 0,55272
 454,02; 2304,848;   -6,000; 8253,918; 0,55320
 454,60; 2355,870;   -4,970; 8506,944; 0,55696
 455,19; 2400,664;   -5,800; 8685,310; 0,55770
 455,77; 2291,141;   -6,120; 8302,359; 0,55831
 456,36; 2242,824;   -4,170; 8197,319; 0,56229
 456,95; 2307,320;   -5,470; 8452,063; 0,56311
 457,53; 2382,193;   -5,520; 8688,230; 0,56123
 458,12; 2370,259;   -4,440; 8706,320; 0,56445
 458,70; 2360,807;   -6,350; 8714,096; 0,56631
 459,29; 2396,740;   -4,310; 8884,757; 0,56845
 459,87; 2361,522;   -5,620; 8730,492; 0,56709
 460,46; 2326,021;   -5,920; 8684,689; 0,57133
 461,05; 2261,716;   -4,670; 8434,683; 0,57098
 461,63; 2038,406;   -5,640; 7638,243; 0,57282
 462,22; 1943,919;   -5,000; 7377,562; 0,57841
 462,80; 1983,873;   -4,730; 7579,165; 0,58134
 463,39; 2072,753;   -6,030; 7920,697; 0,58128
 463,97; 2128,022;   -4,330; 8131,772; 0,58156
 464,56; 2247,459;   -5,360; 8622,482; 0,58318
 465,14; 2342,183;   -4,760; 8990,919; 0,58353
 465,73; 2326,885;   -3,120; 8860,700; 0,58026
 466,31; 2043,208;   -5,760; 7830,991; 0,58260
 466,90; 1877,518;   -4,090; 7216,580; 0,58405
 467,49; 1815,592;   -4,290; 7011,400; 0,58603
 468,07; 1748,654;   -5,660; 6775,029; 0,58717
 468,66; 1653,519;   -5,020; 6438,934; 0,58943
 469,24; 1594,735;   -6,240; 6212,130; 0,58929
 469,83; 1547,047;   -4,510; 6051,877; 0,59145
 470,41; 1534,888;   -4,790; 6020,390; 0,59254
 471,00; 1521,248;   -6,220; 6002,212; 0,59479
 471,58; 1555,186;   -3,970; 6134,544; 0,59517
 472,17; 1584,823;   -5,420; 6260,077; 0,59549
 472,75; 1659,565;   -4,340; 6497,520; 0,59191
 473,34; 1692,454;   -4,640; 6634,969; 0,59244
 473,92; 1689,865;   -6,070; 6601,430; 0,59063
 474,51; 1771,887;   -4,240; 6916,545; 0,59068
 475,09; 1823,766;   -5,720; 7104,314; 0,58954
 475,68; 1723,525;   -5,460; 6712,481; 0,58945
 476,26; 1679,830;   -4,020; 6530,137; 0,58889
 476,85; 1620,234;   -6,180; 6292,899; 0,58805
 477,43; 1670,637;   -4,390; 6504,901; 0,58951
 478,01; 1732,289;   -5,370; 6647,962; 0,58307
 478,60; 1687,655;   -6,120; 6471,654; 0,58257
 479,18; 1734,983;   -4,250; 6621,395; 0,58087
 479,77; 1844,345;   -6,160; 6975,782; 0,57669
 480,35; 1840,952;   -5,200; 6876,148; 0,57141
 480,94; 1845,121;   -4,500; 6920,330; 0,57333
 481,52; 1906,208;   -6,170; 7078,149; 0,56872
 482,11; 1803,487;   -3,850; 6632,005; 0,56486
 482,69; 1749,892;   -5,220; 6390,371; 0,56158
 483,27; 1773,479;   -5,110; 6471,612; 0,56128
 483,86; 1907,755;   -4,630; 6928,670; 0,55936
 484,44; 2263,446;   -5,120; 8190,856; 0,55785
 485,03; 4155,937;   -3,890;15113,356; 0,56040
 485,61; 7023,083;   -5,060;24322,736; 0,53926
 486,20; 4660,757;   -5,780;15510,539; 0,52179
 486,78; 2767,933;   -4,650; 9340,438; 0,52770
 487,36; 2103,297;   -6,270; 7115,529; 0,52840
 487,95; 1787,547;   -4,590; 6062,471; 0,52961
 488,53; 1739,417;   -4,860; 5871,479; 0,52749
 489,12; 1698,548;   -6,480; 5669,852; 0,52234
 489,70; 1640,200;   -4,090; 5438,611; 0,51984
 490,28; 1626,862;   -5,820; 5392,220; 0,51933
 490,87; 1690,371;   -4,040; 5496,718; 0,51140
 491,45; 1692,298;   -3,860; 5460,720; 0,50809
 492,04; 1719,124;   -5,990; 5485,119; 0,50284
 492,62; 1729,914;   -4,510; 5467,521; 0,49899
 493,20; 1797,021;   -5,600; 5578,742; 0,49107
 493,79; 1815,480;   -5,330; 5616,836; 0,48964
 494,37; 1827,581;   -4,370; 5576,673; 0,48380
 494,95; 1764,152;   -6,470; 5340,182; 0,47996
 495,54; 1903,059;   -3,440; 5765,851; 0,48089
 496,12; 2090,156;   -5,470; 6213,000; 0,47237
 496,71; 1907,572;   -6,210; 5574,493; 0,46480
 497,29; 1726,571;   -4,670; 5042,672; 0,46471
 497,87; 1712,332;   -5,230; 5006,571; 0,46508
 498,46; 1767,604;   -4,960; 5161,877; 0,46462
 499,04; 1876,638;   -5,080; 5455,535; 0,46269
 499,62; 1903,362;   -6,210; 5472,297; 0,45773
 500,21; 1833,851;   -4,440; 5243,382; 0,45556
 500,79; 1947,012;   -5,780; 5516,692; 0,45148
 501,37; 2005,025;   -4,850; 5623,882; 0,44724
 501,96; 2041,386;   -5,060; 5679,320; 0,44368
 502,54; 2037,917;   -6,430; 5638,692; 0,44112
 503,12; 2068,417;   -4,120; 5658,858; 0,43654
 503,71; 1985,413;   -5,740; 5425,757; 0,43581
 504,29; 1980,542;   -5,680; 5341,613; 0,43011
 504,87; 2012,592;   -4,140; 5380,955; 0,42655
 505,45; 2035,636;   -5,420; 5373,715; 0,42086
 506,04; 2147,170;   -3,420; 5558,190; 0,41264
 506,62; 2066,379;   -5,020; 5246,018; 0,40398
 507,20; 2037,997;   -5,990; 5120,641; 0,39935
 507,79; 2124,396;   -3,890; 5244,935; 0,39203
 508,37; 2145,993;   -5,960; 5191,644; 0,38297
 508,95; 2047,207;   -5,310; 4920,298; 0,38017
 509,53; 2086,961;   -4,720; 4924,208; 0,37226
 510,12; 2101,561;   -6,350; 4899,899; 0,36690
 510,70; 2055,213;   -4,010; 4748,836; 0,36325
 511,28; 2021,371;   -5,130; 4605,229; 0,35699
 511,87; 1939,689;   -5,470; 4382,706; 0,35333
 512,45; 1970,052;   -4,440; 4416,259; 0,35004
 513,03; 1977,665;   -5,800; 4391,799; 0,34579
 513,61; 1936,820;   -3,880; 4274,630; 0,34333
 514,20; 1935,085;   -4,780; 4210,569; 0,33706
 514,78; 1860,375;   -5,880; 4033,147; 0,33531
 515,36; 1920,704;   -4,680; 4131,142; 0,33204
 515,94; 2038,433;   -5,760; 4305,274; 0,32406
 516,52; 2057,772;   -4,620; 4320,483; 0,32163
 517,11; 1986,455;   -4,890; 4128,679; 0,31718
 517,69; 1959,584;   -6,420; 4050,334; 0,31459
 518,27; 2017,567;   -3,610; 4135,854; 0,31134
 518,85; 2169,267;   -5,530; 4344,704; 0,30109
 519,44; 2086,302;   -5,590; 4137,666; 0,29680
 520,02; 1995,527;   -4,930; 3922,927; 0,29303
 520,60; 2042,663;   -5,740; 4000,346; 0,29130
 521,18; 2090,041;   -4,400; 4074,244; 0,28945
 521,76; 2116,531;   -5,590; 4085,933; 0,28511
 522,35; 2256,388;   -5,800; 4291,255; 0,27864
 522,93; 2377,418;   -4,110; 4437,493; 0,27068
 523,51; 2515,481;   -6,130; 4665,015; 0,26775
 524,09; 2607,394;   -4,020; 4787,945; 0,26364
 524,67; 2664,399;   -4,220; 4842,116; 0,25913
 525,26; 2790,605;   -5,760; 5024,741; 0,25502
 525,84; 2952,760;   -3,820; 5259,229; 0,25045
 526,42; 3135,115;   -5,800; 5528,952; 0,24604
 527,00; 3281,506;   -4,910; 5738,248; 0,24243
 527,58; 3429,637;   -4,270; 5940,199; 0,23832
 528,16; 3748,970;   -6,430; 6448,524; 0,23524
 528,75; 3993,753;   -4,290; 6767,192; 0,22884
 529,33; 4016,138;   -5,040; 6747,773; 0,22513
 529,91; 4030,683;   -5,230; 6738,563; 0,22296
 530,49; 4079,691;   -4,620; 6758,463; 0,21903
 531,07; 4128,872;   -6,070; 6780,956; 0,21521
 531,65; 4160,934;   -4,880; 6775,537; 0,21156
 532,23; 4178,444;   -5,010; 6762,517; 0,20889
 532,82; 4325,319;   -5,590; 6974,594; 0,20729
 533,40; 4339,778;   -3,630; 6954,271; 0,20465
 533,98; 4303,722;   -5,740; 6846,630; 0,20142
 534,56; 4253,963;   -4,040; 6740,677; 0,19976
 535,14; 4183,901;   -4,780; 6580,928; 0,19653
 535,72; 4032,290;   -6,250; 6318,303; 0,19481
 536,30; 3898,275;   -4,290; 6070,458; 0,19218
 536,88; 3938,692;   -5,730; 6129,496; 0,19185
 537,47; 4127,211;   -5,090; 6398,243; 0,19021
 538,05; 4257,709;   -4,710; 6564,664; 0,18787
 538,63; 4385,825;   -6,180; 6689,292; 0,18312
 539,21; 4459,271;   -4,600; 6745,702; 0,17961
 539,79; 4468,823;   -5,160; 6740,590; 0,17834
 540,37; 4625,925;   -5,600; 6961,065; 0,17730
 540,95; 4801,823;   -4,440; 7196,376; 0,17557
 541,53; 4873,991;   -5,820; 7232,527; 0,17124
 542,11; 4941,746;   -4,090; 7309,454; 0,16989
 542,69; 4993,423;   -4,960; 7328,966; 0,16651
 543,27; 5074,680;   -6,420; 7433,877; 0,16563
 543,85; 5184,445;   -4,370; 7548,492; 0,16304
 544,44; 5252,759;   -5,890; 7619,046; 0,16136
 545,02; 5220,069;   -4,910; 7528,551; 0,15891
 545,60; 5136,953;   -4,650; 7408,982; 0,15893
 546,18; 5226,724;   -5,240; 7539,811; 0,15900
 546,76; 5526,611;   -4,960; 7946,127; 0,15758
 547,34; 5965,792;   -4,800; 8503,064; 0,15380
 547,92; 6187,481;   -4,980; 8748,396; 0,15031
 548,50; 6101,313;   -4,610; 8588,105; 0,14838
 549,08; 6137,117;   -6,410; 8615,825; 0,14720
 549,66; 6384,498;   -4,320; 8932,722; 0,14577
 550,24; 6633,646;   -4,990; 9209,013; 0,14237
 550,82; 6866,813;   -5,360; 9498,965; 0,14083
 551,40; 7409,928;   -3,300;10238,481; 0,14037
 551,98; 7900,903;   -5,440;10860,234; 0,13808
 552,56; 8080,947;   -4,820;11100,096; 0,13779
 553,14; 8360,169;   -4,670;11432,398; 0,13586
 553,72; 8596,376;   -6,140;11711,830; 0,13423
 554,30; 8799,074;   -4,050;11982,819; 0,13407
 554,88; 9244,064;   -5,750;12572,264; 0,13348
 555,46; 9566,445;   -4,880;12963,958; 0,13193
 556,04; 9688,336;   -4,010;13082,517; 0,13040
 556,62; 9750,260;   -6,440;13154,718; 0,12999
 557,20; 9916,250;   -3,950;13370,153; 0,12974
 557,78;10065,494;   -5,340;13525,174; 0,12825
 558,36;10124,352;   -5,980;13585,824; 0,12765
 558,94;10277,520;   -4,310;13770,318; 0,12701
 559,52;10552,520;   -6,060;14147,013; 0,12725
 560,10;10838,039;   -4,370;14486,854; 0,12598
 560,68;11013,464;   -4,570;14662,172; 0,12423
 561,26;11051,096;   -6,000;14646,192; 0,12226
 561,84;11066,130;   -4,310;14644,543; 0,12164
 562,42;11215,866;   -6,610;14826,505; 0,12114
 563,00;11506,562;   -4,630;15138,292; 0,11909
 563,58;11805,767;   -4,310;15494,233; 0,11804
 564,15;12075,412;   -5,780;15798,239; 0,11666
 564,73;12303,844;   -4,090;16136,785; 0,11774
 565,31;12517,558;   -5,560;16434,076; 0,11818
 565,89;12865,618;   -5,280;16852,828; 0,11720
 566,47;13168,843;   -4,100;17266,021; 0,11761
 567,05;13640,663;   -5,790;17859,629; 0,11699
 567,63;13902,495;   -4,890;18165,754; 0,11612
 568,21;14297,992;   -4,440;18678,672; 0,11604
 568,79;14734,629;   -6,050;19237,020; 0,11576
 569,37;15366,129;   -4,080;20062,637; 0,11580
 569,95;15659,522;   -6,120;20383,936; 0,11447
 570,53;16045,495;   -4,300;20939,088; 0,11558
 571,10;16288,462;   -4,380;21241,170; 0,11527
 571,68;16422,348;   -6,390;21372,480; 0,11438
 572,26;15963,076;   -4,050;20790,295; 0,11472
 572,84;16719,680;   -5,440;21854,734; 0,11628
 573,42;17439,920;   -4,400;22685,396; 0,11418
 574,00;18012,168;   -4,360;23371,271; 0,11309
 574,58;18015,979;   -5,410;23298,857; 0,11165
 575,16;17442,055;   -4,450;22566,332; 0,11184
 575,73;17489,314;   -4,990;22718,398; 0,11358
 576,31;18367,355;   -5,050;23878,748; 0,11394
 576,89;19035,795;   -4,890;24686,297; 0,11286
 577,47;20221,119;   -5,640;26187,012; 0,11225
 578,05;19503,207;   -3,830;25106,822; 0,10967
 578,63;18568,561;   -4,660;23921,383; 0,10998
 579,21;18699,705;   -5,300;24169,705; 0,11141
 579,78;19203,555;   -4,120;24789,994; 0,11087
 580,36;19730,348;   -5,990;25506,721; 0,11149
 580,94;21381,695;   -4,930;27754,170; 0,11326
 581,52;21719,879;   -4,210;28000,449; 0,11029
 582,10;20798,689;   -6,520;26744,906; 0,10917
 582,67;19799,033;   -4,510;25411,705; 0,10837
 583,25;19435,154;   -5,530;24988,957; 0,10913
 583,83;19819,334;   -5,310;25497,186; 0,10938
 584,41;20566,623;   -4,260;26493,873; 0,10996
 584,99;21109,863;   -6,050;27163,625; 0,10947
 585,57;20835,078;   -4,600;26773,727; 0,10889
 586,14;20561,342;   -4,960;26543,770; 0,11089
 586,72;20972,537;   -5,530;27203,932; 0,11295
 587,30;21166,848;   -4,110;27436,443; 0,11265
 587,88;21134,533;   -5,800;27388,404; 0,11255
 588,45;21214,221;   -4,560;27443,031; 0,11178
 589,03;21312,016;   -4,130;27546,209; 0,11142
 589,61;21563,029;   -5,140;27904,295; 0,11194
 590,19;21706,115;   -4,280;28123,516; 0,11247
 590,77;21825,521;   -5,400;28409,002; 0,11447
 591,34;22047,250;   -4,750;28784,891; 0,11579
 591,92;22353,438;   -4,900;29212,699; 0,11621
 592,50;22839,109;   -6,440;29840,543; 0,11610
 593,08;22918,967;   -3,930;29976,813; 0,11657
 593,65;22912,102;   -5,330;29944,469; 0,11623
 594,23;22953,467;   -5,390;30009,059; 0,11638
 594,81;23207,490;   -4,220;30234,799; 0,11486
 595,39;23314,703;   -5,910;30391,623; 0,11510
 595,96;23409,598;   -4,390;30590,801; 0,11618
 596,54;23606,629;   -4,970;30873,852; 0,11654
 597,12;23802,225;   -5,110;31175,736; 0,11718
 597,69;23930,393;   -3,310;31338,148; 0,11711
 598,27;24194,344;   -5,390;31712,092; 0,11749
 598,85;24343,883;   -4,950;31937,922; 0,11790
 599,43;24381,404;   -5,110;31989,500; 0,11793
 600,00;24408,250;   -5,990;32126,084; 0,11930
 600,58;24408,678;   -4,300;32180,908; 0,12004
 601,16;24424,789;   -4,710;32195,244; 0,11994
 601,73;24451,850;   -5,640;32236,727; 0,12002
 602,31;24520,152;   -4,300;32360,947; 0,12048
 602,89;24639,672;   -6,590;32560,871; 0,12103
 603,46;24643,428;   -4,360;32703,152; 0,12287
 604,04;24661,180;   -5,150;32845,133; 0,12443
 604,62;24708,314;   -5,600;32927,160; 0,12469
 605,19;24806,533;   -4,150;33099,266; 0,12523
 605,77;24880,229;   -5,760;33164,250; 0,12479
 606,35;24846,334;   -4,850;33150,660; 0,12521
 606,92;24850,664;   -3,990;33220,434; 0,12605
 607,50;24846,764;   -6,550;33157,086; 0,12528
 608,08;24826,557;   -4,260;33184,164; 0,12600
 608,65;24884,279;   -5,240;33285,961; 0,12631
 609,23;24934,160;   -4,850;33354,836; 0,12634
 609,81;25027,943;   -4,060;33459,629; 0,12608
 610,38;25000,127;   -5,910;33419,234; 0,12603
 610,96;24973,691;   -4,150;33473,617; 0,12720
 611,54;24920,139;   -5,630;33526,098; 0,12881
 612,11;24914,328;   -5,630;33578,258; 0,12958
 612,69;24930,119;   -4,200;33678,074; 0,13060
 613,26;24866,275;   -5,950;33790,145; 0,13315
 613,84;24881,107;   -3,890;33749,133; 0,13238
 614,42;24959,111;   -4,870;33748,535; 0,13100
 614,99;24892,822;   -5,940;33759,488; 0,13229
 615,57;24811,012;   -4,720;33678,309; 0,13268
 616,14;24793,545;   -5,560;33720,414; 0,13353
 616,72;24794,551;   -4,440;33717,316; 0,13348
 617,30;24852,922;   -4,290;33713,566; 0,13241
 617,87;24824,211;   -6,250;33726,121; 0,13306
 618,45;24705,500;   -4,460;33630,449; 0,13392
 619,02;24711,631;   -5,730;33662,223; 0,13421
 619,60;24757,738;   -4,980;33846,770; 0,13578
 620,17;24685,482;   -3,950;33784,738; 0,13626
 620,75;24554,949;   -6,600;33645,953; 0,13676
 621,33;24563,777;   -3,960;33804,094; 0,13866
 621,90;24566,205;   -4,720;33869,941; 0,13945
 622,48;24596,318;   -6,510;33913,844; 0,13948
 623,05;24672,814;   -4,060;34100,281; 0,14052
 623,63;24705,070;   -6,170;34138,680; 0,14043
 624,20;24903,824;   -4,310;34360,914; 0,13978
 624,78;24988,258;   -4,040;34469,391; 0,13968
 625,35;25081,035;   -5,620;34523,895; 0,13875
 625,93;25218,713;   -4,100;34620,688; 0,13759
 626,50;25297,273;   -5,220;34859,051; 0,13922
 627,08;25401,707;   -4,380;35085,145; 0,14024
 627,66;25438,504;   -4,340;35115,031; 0,13998
 628,23;25484,523;   -5,570;35320,547; 0,14172
 628,81;25658,232;   -4,180;35584,832; 0,14202
 629,38;25814,271;   -4,870;35830,012; 0,14236
 629,96;25946,574;   -5,120;36103,207; 0,14344
 630,53;26119,189;   -3,840;36312,395; 0,14308
 631,11;26404,039;   -5,790;36585,129; 0,14161
 631,68;26574,449;   -3,830;36883,961; 0,14236
 632,26;26709,305;   -4,770;36984,973; 0,14134
 632,83;26967,322;   -6,570;37168,785; 0,13931
 633,40;27125,896;   -3,370;37429,043; 0,13981
 633,98;27232,541;   -5,940;37579,770; 0,13984
 634,55;27358,309;   -4,070;37613,477; 0,13824
 635,13;27454,900;   -4,150;37790,781; 0,13875
 635,70;27532,793;   -6,570;38036,090; 0,14032
 636,28;27633,725;   -4,370;38166,969; 0,14023
 636,85;27686,309;   -5,250;38399,809; 0,14204
 637,43;27713,463;   -5,520;38569,984; 0,14353
 638,00;27847,721;   -3,680;38656,527; 0,14242
 638,58;27985,197;   -5,860;38825,258; 0,14216
 639,15;28069,900;   -3,990;39006,434; 0,14288
 639,73;28170,053;   -4,400;39074,633; 0,14209
 640,30;28133,965;   -4,680;39151,938; 0,14350
 640,87;28061,006;   -3,870;39184,527; 0,14499
 641,45;28096,928;   -6,500;39080,559; 0,14327
 642,02;28135,748;   -4,100;39083,559; 0,14272
 642,60;28110,549;   -4,230;39152,445; 0,14387
 643,17;28224,869;   -5,420;39186,805; 0,14248
 643,74;28363,590;   -3,180;39306,273; 0,14169
 644,32;28437,961;   -5,540;39459,453; 0,14223
 644,89;28528,742;   -5,240;39502,215; 0,14132
 645,47;28667,553;   -4,360;39552,703; 0,13977
 646,04;28668,154;   -5,990;39672,434; 0,14106
 646,61;28665,514;   -3,860;39626,254; 0,14061
 647,19;28676,705;   -4,310;39608,230; 0,14024
 647,76;28686,025;   -5,380;39691,980; 0,14101
 648,34;28676,547;   -3,530;39664,840; 0,14086
 648,91;28817,998;   -6,390;39640,609; 0,13845
 649,48;28863,648;   -4,280;39710,809; 0,13854
 650,06;28916,359;   -4,200;39781,098; 0,13852
 650,63;29029,250;   -5,220;39836,277; 0,13742
 651,20;29168,080;   -4,210;40084,777; 0,13805
 651,78;29271,160;   -5,490;40316,586; 0,13902
 652,35;29572,191;   -4,820;40521,926; 0,13679
 652,92;29852,463;   -4,330;40847,156; 0,13616
 653,50;30011,732;   -5,820;41184,824; 0,13742
 654,07;30222,545;   -4,120;41398,824; 0,13664
 654,64;30831,115;   -6,010;42226,535; 0,13657
 655,22;34358,094;   -4,660;47813,324; 0,14350
 655,79;41300,938;   -3,620;56212,684; 0,13386
 656,36;34913,379;   -5,570;46836,262; 0,12757
 656,94;31989,719;   -4,150;43261,270; 0,13107
 657,51;31646,748;   -4,990;42910,629; 0,13222
 658,08;31930,439;   -5,890;42962,980; 0,12887
 658,66;32124,869;   -4,180;43155,680; 0,12818
 659,23;32230,471;   -5,280;43288,418; 0,12809
 659,80;32376,992;   -4,960;43250,828; 0,12574
 660,38;32529,252;   -4,230;43329,559; 0,12450
 660,95;32528,334;   -5,930;43564,957; 0,12686
 661,52;32623,213;   -4,040;43590,477; 0,12585
 662,09;32823,305;   -5,350;43649,457; 0,12378
 662,67;32903,617;   -4,180;43821,016; 0,12443
 663,24;32971,715;   -4,690;43888,684; 0,12420
 663,81;33121,238;   -5,900;43813,023; 0,12148
 664,39;33147,426;   -4,940;43890,461; 0,12190
 664,96;33100,250;   -4,600;43957,852; 0,12319
 665,53;33268,398;   -5,790;43903,441; 0,12045
 666,10;33495,199;   -4,420;43882,570; 0,11730
 666,68;33563,820;   -5,650;43913,750; 0,11671
 667,25;33640,582;   -3,600;43841,281; 0,11501
 667,82;33821,023;   -4,900;43812,020; 0,11239
 668,39;33868,473;   -5,390;43960,840; 0,11325
 668,96;33839,203;   -4,030;44025,977; 0,11428
 669,54;33973,844;   -6,050;43938,379; 0,11168
 670,11;34031,766;   -5,210;43908,816; 0,11065
 670,68;33993,125;   -4,180;43934,105; 0,11140
 671,25;34094,668;   -6,130;43886,285; 0,10962
 671,83;34309,148;   -4,330;43901,594; 0,10706
 672,40;34361,359;   -5,120;44041,113; 0,10777
 672,97;34411,520;   -4,860;44033,203; 0,10706
 673,54;34666,621;   -3,840;44056,711; 0,10409
 674,11;34760,820;   -5,530;44215,301; 0,10447
 674,69;34750,953;   -4,290;44391,453; 0,10632
 675,26;34945,320;   -5,340;44425,211; 0,10423
 675,83;35107,871;   -5,560;44331,398; 0,10129
 676,40;35164,105;   -3,900;44484,891; 0,10210
 676,97;35249,676;   -5,680;44466,117; 0,10086
 677,54;35479,164;   -4,570;44419,547; 0,09759
 678,12;35617,367;   -4,050;44533,148; 0,09701
 678,69;35544,305;   -5,770;44558,098; 0,09814
 679,26;35714,969;   -4,090;44447,195; 0,09498
 679,83;35974,840;   -5,640;44546,547; 0,09280
 680,40;36017,809;   -4,970;44760,824; 0,09437
 680,97;36136,270;   -3,770;44837,453; 0,09369
 681,55;36325,430;   -6,160;44769,504; 0,09076
 682,12;36448,750;   -3,880;44911,723; 0,09067
 682,69;36524,250;   -5,050;45099,484; 0,09158
 683,26;36761,211;   -5,640;45111,473; 0,08888
 683,83;37025,742;   -4,680;45176,211; 0,08640
 684,40;37131,773;   -6,160;45480,672; 0,08807
 684,97;37255,715;   -4,550;45540,070; 0,08719
 685,54;37574,016;   -4,810;45450,879; 0,08265
 686,12;37795,008;   -5,100;45523,258; 0,08079
 686,69;37899,887;   -4,580;45682,129; 0,08110
 687,26;38221,387;   -5,290;45765,367; 0,07822
 687,83;38552,320;   -4,510;45894,699; 0,07570
 688,40;38752,391;   -4,300;46287,637; 0,07716
 688,97;38863,031;   -6,200;46487,965; 0,07779
 689,54;39238,293;   -4,240;46448,277; 0,07325
 690,11;39512,730;   -5,040;46520,203; 0,07090
 690,68;39533,152;   -5,220;46794,516; 0,07322
 691,25;39697,555;   -3,450;46851,703; 0,07196
 691,82;39913,445;   -5,320;46733,691; 0,06850
 692,40;40056,004;   -4,730;47005,051; 0,06947
 692,97;40017,676;   -4,630;47201,703; 0,07170
 693,54;40126,895;   -5,290;47050,500; 0,06912
 694,11;40311,695;   -4,550;46891,750; 0,06566
 694,68;40339,559;   -5,420;46963,738; 0,06602
 695,25;40282,719;   -4,190;46914,809; 0,06618
 695,82;40440,660;   -4,430;46775,258; 0,06319
 696,39;40532,082;   -6,150;46747,270; 0,06195
 696,96;40439,699;   -4,350;46951,676; 0,06484
 697,53;40318,563;   -5,420;46814,797; 0,06487
 698,10;40422,391;   -4,290;46647,438; 0,06220
 698,67;40480,742;   -4,140;46753,895; 0,06256
 699,24;40464,465;   -5,950;46852,555; 0,06365
 699,81;40603,445;   -4,360;46623,223; 0,06003
 700,38;40869,074;   -4,650;46440,543; 0,05550
 700,95;40792,797;   -5,150;46450,844; 0,05640
 701,52;40622,918;   -4,050;46426,313; 0,05799
 702,09;40600,086;   -5,740;46168,152; 0,05581
 702,66;40630,508;   -4,020;46009,211; 0,05399
 703,23;40494,699;   -4,780;45999,590; 0,05535
 703,80;40485,461;   -5,590;45907,691; 0,05458
 704,37;40750,680;   -4,410;45708,918; 0,04986
 704,94;40914,293;   -4,930;45698,988; 0,04803
 705,51;40884,551;   -4,190;45905,098; 0,05030
 706,08;40976,715;   -3,930;45836,789; 0,04867
 706,65;41242,125;   -5,850;45611,945; 0,04373
 707,22;41319,156;   -4,510;45584,406; 0,04266
 707,79;41180,465;   -4,830;45660,547; 0,04484
 708,36;41080,977;   -4,570;45504,746; 0,04441
 708,93;41076,969;   -4,340;45274,883; 0,04225
 709,50;40992,848;   -5,570;45299,125; 0,04338
 710,06;40879,738;   -4,110;45407,484; 0,04561
 710,63;40952,719;   -4,020;45198,102; 0,04283
 711,20;41016,141;   -5,850;44921,992; 0,03950
 711,77;40950,270;   -3,570;44926,500; 0,04024
 712,34;40757,961;   -5,610;44986,941; 0,04287
 712,91;40848,980;   -4,400;44911,281; 0,04117
 713,48;41052,715;   -4,200;44910,109; 0,03900
 714,05;40995,063;   -5,980;45102,328; 0,04146
 714,62;40828,215;   -4,620;45085,508; 0,04307
 715,19;40889,566;   -5,130;44782,238; 0,03949
 715,76;40973,715;   -4,790;44596,875; 0,03679
 716,33;40889,488;   -4,340;44701,617; 0,03871
 716,89;40819,496;   -5,890;44753,336; 0,03995
 717,46;41011,477;   -4,240;44585,035; 0,03628
 718,03;41234,949;   -5,030;44520,375; 0,03329
 718,60;41140,230;   -4,910;44693,734; 0,03598
 719,17;41157,211;   -4,310;44775,863; 0,03659
 719,74;41350,121;   -5,810;44634,102; 0,03319
 720,31;41497,320;   -4,990;44611,461; 0,03142
 720,88;41415,004;   -4,640;44770,992; 0,03384
 721,44;41322,652;   -5,380;44782,961; 0,03492
 722,01;41484,863;   -4,640;44656,168; 0,03199
 722,58;41590,375;   -5,800;44688,008; 0,03119
 723,15;41440,688;   -4,880;44932,078; 0,03513
 723,72;41346,277;   -4,530;44924,457; 0,03604
 724,29;41515,449;   -5,990;44656,809; 0,03167
 724,85;41649,930;   -4,290;44618,418; 0,02990
 725,42;41645,398;   -4,660;44768,586; 0,03140
 725,99;41614,980;   -4,740;44888,344; 0,03288
 726,56;41864,211;   -4,060;44773,324; 0,02917
 727,13;42011,121;   -5,900;44728,145; 0,02721
 727,69;42030,141;   -4,420;44921,324; 0,02889
 728,26;41984,781;   -5,030;44960,863; 0,02974
 728,83;42033,563;   -5,820;44756,723; 0,02726
 729,40;42099,625;   -4,030;44593,773; 0,02499
 729,97;42029,047;   -5,730;44758,859; 0,02733
 730,53;41920,875;   -4,250;44798,461; 0,02883
 731,10;42003,758;   -3,790;44595,320; 0,02600
 731,67;42168,957;   -5,590;44531,309; 0,02367
 732,24;42139,828;   -4,300;44780,820; 0,02640
 732,81;42102,500;   -5,780;45016,137; 0,02906
 733,37;42336,270;   -4,930;45010,629; 0,02660
 733,94;42654,102;   -4,330;45043,945; 0,02367
 734,51;42658,340;   -5,420;45113,848; 0,02430
 735,08;42463,211;   -4,400;45187,977; 0,02701
 735,64;42537,211;   -4,910;45036,566; 0,02479
 736,21;42787,844;   -5,070;44870,313; 0,02064
 736,78;42833,773;   -4,880;44973,355; 0,02117
 737,35;42735,863;   -6,390;45219,055; 0,02453
 737,91;42745,496;   -4,080;45155,664; 0,02382
 738,48;42826,945;   -4,490;45033,762; 0,02182
 739,05;42827,566;   -5,350;45020,051; 0,02168
 739,61;42452,609;   -4,600;44980,719; 0,02512
 740,18;42205,570;   -5,600;44708,059; 0,02501
 740,75;42236,848;   -4,620;44432,090; 0,02200
 741,32;42170,359;   -4,280;44328,719; 0,02168
 741,88;41925,563;   -5,640;44408,680; 0,02499
 742,45;41862,211;   -3,900;44379,148; 0,02535
 743,02;41950,012;   -5,070;44134,105; 0,02204
 743,58;42048,043;   -5,630;43977,766; 0,01948
 744,15;41950,324;   -4,240;44108,547; 0,02179
 744,72;41800,254;   -6,180;44114,516; 0,02340
 745,28;41932,977;   -4,350;43939,516; 0,02030
 745,85;42189,176;   -4,910;43754,672; 0,01582
 746,42;42151,926;   -5,690;43875,164; 0,01740
 746,98;41911,367;   -3,840;43989,902; 0,02102
 747,55;41920,430;   -5,850;43852,242; 0,01956
 748,12;42057,668;   -4,270;43608,371; 0,01572
 748,68;42097,789;   -4,650;43644,801; 0,01567
 749,25;42008,250;   -5,470;43821,398; 0,01835
 749,82;42028,543;   -3,920;43793,238; 0,01786
 750,38;42198,223;   -5,780;43617,641; 0,01437
 750,95;42191,574;   -4,420;43542,969; 0,01369
 751,52;42060,785;   -4,020;43727,766; 0,01688
 752,08;41958,836;   -5,020;43775,969; 0,01841
 752,65;42234,574;   -3,530;43643,355; 0,01425
 753,21;42530,777;   -4,580;43571,484; 0,01050
 753,78;42571,926;   -4,810;43680,336; 0,01116
 754,35;42362,109;   -4,370;43714,695; 0,01365
 754,91;42379,438;   -5,860;43531,992; 0,01165
 755,48;42523,590;   -4,500;43269,844; 0,00755
 756,04;42434,270;   -4,000;43164,844; 0,00741
 756,61;42199,031;   -4,650;43272,242; 0,01091
 757,18;42116,020;   -4,160;43257,531; 0,01161
 757,74;42221,910;   -5,890;43008,641; 0,00802
 758,31;42137,504;   -4,660;42833,559; 0,00711
 758,87;42026,043;   -4,110;43051,840; 0,01047
 759,44;41956,086;   -5,480;43300,828; 0,01370
 760,00;42068,477;   -3,650;43224,090; 0,01177
 760,57;42298,977;   -4,820;43135,617; 0,00851
 761,14;42133,227;   -4,810;43084,277; 0,00969
 761,70;41759,918;   -4,590;43139,727; 0,01412
 762,27;41549,688;   -5,140;43069,125; 0,01560
 762,83;41591,629;   -4,410;42867,105; 0,01312
 763,40;41679,852;   -4,860;42876,336; 0,01229
 763,96;41590,000;   -4,710;43092,594; 0,01541
 764,53;41610,691;   -3,960;43247,293; 0,01675
 765,09;41605,711;   -4,860;42971,063; 0,01402
 765,66;41697,434;   -4,550;42641,211; 0,00972
 766,22;41737,195;   -4,170;42718,590; 0,01009
 766,79;41543,523;   -5,530;42920,512; 0,01416
 767,35;41579,496;   -4,060;43019,488; 0,01478
 767,92;41907,285;   -5,110;42938,711; 0,01056
 768,48;42191,426;   -4,960;43035,750; 0,00860
 769,05;42035,117;   -4,410;43189,520; 0,01176
 769,61;41823,859;   -5,630;43249,059; 0,01455
 770,18;41859,867;   -4,520;43151,426; 0,01320
 770,74;42048,168;   -4,340;43040,527; 0,01013
 771,31;42064,051;   -5,180;43067,074; 0,01023
 771,87;41805,672;   -4,460;43130,035; 0,01354
 772,44;41766,723;   -5,900;43146,305; 0,01411
 773,00;42017,453;   -4,520;42954,523; 0,00958
 773,57;42362,863;   -4,550;42919,402; 0,00567
 774,13;42435,824;   -5,560;43132,664; 0,00707
 774,70;42501,766;   -3,740;43480,652; 0,00989
 775,26;42685,477;   -5,570;43532,820; 0,00854
 775,82;43003,207;   -4,340;43474,180; 0,00473
 776,39;43089,379;   -4,110;43549,422; 0,00461
 776,95;42894,949;   -5,150;43779,379; 0,00886
 777,52;42692,398;   -4,150;43901,398; 0,01213
 778,08;42748,898;   -4,380;43836,879; 0,01091
 778,65;42876,512;   -4,830;43747,176; 0,00873
 779,21;42822,242;   -4,940;43733,059; 0,00914
 779,77;42544,043;   -5,360;43752,418; 0,01216
 780,34;42419,813;   -4,700;43678,484; 0,01270
 780,90;42577,715;   -4,380;43592,105; 0,01022
 781,47;42676,414;   -6,070;43546,316; 0,00876
 782,03;42628,344;   -3,450;43754,684; 0,01133
 782,59;42463,617;   -4,970;43978,102; 0,01522
 783,16;42487,188;   -4,210;44033,242; 0,01552
 783,72;42624,047;   -4,440;43914,473; 0,01295
 784,29;42549,047;   -5,050;43815,883; 0,01274
 784,85;42433,188;   -4,310;43826,129; 0,01403
 785,41;42337,570;   -5,480;43780,441; 0,01455
 785,98;42407,820;   -4,460;43422,410; 0,01027
 786,54;42572,160;   -3,350;43050,258; 0,00485
 787,10;42513,473;   -5,650;42904,738; 0,00398
 787,67;42276,004;   -3,740;43003,938; 0,00741
 788,23;42010,102;   -4,180;42988,676; 0,01000
 788,79;41973,082;   -4,760;42809,746; 0,00857
 789,36;41928,504;   -3,860;42592,086; 0,00682
 789,92;41827,504;   -5,930;42697,984; 0,00894
 790,48;41636,484;   -4,000;42887,863; 0,01286
 791,05;41593,426;   -4,690;42970,016; 0,01414
 791,61;41713,039;   -5,550;42778,563; 0,01095
 792,17;41829,199;   -4,670;42688,313; 0,00883
 792,74;41677,160;   -4,930;42685,344; 0,01038
 793,30;41444,262;   -4,550;42741,652; 0,01339
 793,86;41293,109;   -4,750;42549,820; 0,01302
 794,43;41202,473;   -5,750;42108,352; 0,00944
 794,99;41064,313;   -3,970;41816,480; 0,00788
 795,55;40728,121;   -5,170;41748,730; 0,01075
 796,11;40378,203;   -4,850;41787,078; 0,01489
 796,68;40300,203;   -3,920;41757,438; 0,01543
 797,24;40381,344;   -5,510;41567,977; 0,01258
 797,80;40395,355;   -3,660;41408,316; 0,01076
 798,36;40118,215;   -5,030;41373,914; 0,01338
 798,93;39773,629;   -5,030;41386,785; 0,01726
 799,49;39661,707;   -4,410;41233,816; 0,01688
 800,05;39720,391;   -5,200;40967,043; 0,01342
 800,61;39706,008;   -4,730;40795,965; 0,01176
 801,18;39519,012;   -3,810;40801,121; 0,01386
 801,74;39253,672;   -4,800;40736,980; 0,01611
 802,30;39172,473;   -3,250;40506,191; 0,01454
 802,86;39217,203;   -4,880;40151,000; 0,01022
 803,43;39171,953;   -4,670;39917,582; 0,00819
 803,99;38913,766;   -3,660;39878,941; 0,01064
 804,55;38748,047;   -5,800;39891,219; 0,01263
 805,11;38656,125;   -4,200;39689,000; 0,01145
 805,68;38808,508;   -4,770;39396,309; 0,00653
 806,24;38787,527;   -5,180;39209,578; 0,00470
 806,80;38500,258;   -3,540;39183,098; 0,00763
 807,36;38248,141;   -5,300;39288,406; 0,01165
 807,92;38211,219;   -3,720;39260,605; 0,01176
 808,48;38355,000;   -4,840;39107,234; 0,00843
 809,05;38383,480;   -5,220;39018,664; 0,00713
 809,61;38301,480;   -4,430;39107,113; 0,00904
 810,17;38116,512;   -4,740;39234,063; 0,01255
 810,73;38030,352;   -4,960;39195,570; 0,01310
 811,29;38086,035;   -3,780;39030,641; 0,01064
 811,85;38044,586;   -6,000;38846,512; 0,00906
 812,42;37862,414;   -4,540;38865,512; 0,01135
 812,98;37619,137;   -5,330;38977,961; 0,01541
 813,54;37520,727;   -4,720;38961,059; 0,01636
 814,10;37452,996;   -4,060;38607,578; 0,01318
 814,66;37487,980;   -5,660;38285,156; 0,00914
 815,22;37405,250;   -4,660;38106,566; 0,00807
 815,78;37330,332;   -4,540;38169,316; 0,00965
 816,35;37446,082;   -4,930;38224,016; 0,00893
 816,91;37605,820;   -3,780;38150,656; 0,00625
 817,47;37664,254;   -5,080;37956,656; 0,00336
 818,03;37595,012;   -4,650;37995,605; 0,00460
 818,59;37416,934;   -4,300;38138,715; 0,00830
 819,15;37383,734;   -5,250;38306,734; 0,01059
 819,71;37502,836;   -3,600;38274,773; 0,00885
 820,27;37754,207;   -5,020;38224,891; 0,00538
 820,83;37892,367;   -4,680;38347,723; 0,00519
 821,39;37750,738;   -3,680;38474,922; 0,00825
 821,96;37647,828;   -5,390;38640,898; 0,01131
 822,52;37829,598;   -4,030;38713,438; 0,01003
 823,08;38064,488;   -4,860;38651,227; 0,00664
 823,64;38298,020;   -5,060;38749,656; 0,00509
 824,20;38329,152;   -4,200;38923,387; 0,00668
 824,76;38475,203;   -5,780;39229,766; 0,00843
 825,32;38626,215;   -4,450;39467,445; 0,00936
 825,88;38831,074;   -4,040;39384,035; 0,00614
 826,44;38927,055;   -5,220;39278,074; 0,00390
 827,00;38939,207;   -4,320;39389,234; 0,00499
 827,56;38804,258;   -5,520;39548,945; 0,00825
 828,12;38808,617;   -4,540;39686,582; 0,00971
 828,68;39032,648;   -4,400;39663,941; 0,00697
 829,24;39251,180;   -5,330;39617,910; 0,00404
 829,80;39237,578;   -4,120;39720,539; 0,00531
 830,36;38990,719;   -4,620;39912,660; 0,01015
 830,92;38776,801;   -4,990;40081,320; 0,01437
 831,48;38864,980;   -4,050;40070,328; 0,01326
 832,04;38953,973;   -4,900;39870,527; 0,01010
 832,60;38906,965;   -3,970;39690,188; 0,00865
 833,16;38749,055;   -4,740;39708,246; 0,01062
 833,72;38515,965;   -4,780;39721,707; 0,01339
 834,28;38586,406;   -4,320;39707,277; 0,01243
 834,84;38710,316;   -5,550;39449,066; 0,00821
 835,40;38708,188;   -4,230;39225,746; 0,00577
 835,96;38638,016;   -4,040;39271,973; 0,00707
 836,52;38401,039;   -4,780;39429,785; 0,01148
 837,08;38302,719;   -4,010;39423,871; 0,01253
 837,64;38331,441;   -4,700;39258,332; 0,01038
 838,20;38419,000;   -4,360;39008,582; 0,00661
 838,76;38456,230;   -4,520;38867,012; 0,00461
 839,32;38276,141;   -5,920;38930,621; 0,00736
 839,88;38071,852;   -3,720;39094,730; 0,01151
 840,43;37931,633;   -4,530;39116,480; 0,01336
 840,99;37987,313;   -4,270;39076,039; 0,01227
 841,55;38031,324;   -3,390;38930,887; 0,01015
 842,11;37990,316;   -5,590;38981,086; 0,01118
 842,67;37867,285;   -4,340;39091,066; 0,01381
 843,23;37776,879;   -4,600;39027,117; 0,01414
 843,79;37841,527;   -5,320;38792,895; 0,01078
 844,35;38080,469;   -3,660;38551,383; 0,00534
 844,91;38125,609;   -5,490;38348,883; 0,00254
 845,47;38029,680;   -4,670;38280,555; 0,00286
 846,03;37873,250;   -3,620;38267,805; 0,00450
 846,58;37762,422;   -5,330;38180,852; 0,00479
 847,14;37814,672;   -4,360;38056,602; 0,00277
 847,70;37839,055;   -5,100;37903,430; 0,00074
 848,26;37634,094;   -4,510;37788,559; 0,00178
 848,82;37403,574;   -4,580;37885,301; 0,00556
 849,38;37176,414;   -5,620;37883,148; 0,00818
 849,94;37159,496;   -4,100;37756,637; 0,00692
 850,49;37247,629;   -4,500;37578,707; 0,00384
 851,05;37292,648;   -4,960;37537,066; 0,00284
 851,61;37148,820;   -4,350;37672,648; 0,00608
 852,17;36904,680;   -5,580;37858,066; 0,01108
 852,73;36768,371;   -4,530;37982,797; 0,01411
 853,29;36807,781;   -3,860;37843,137; 0,01205
 853,84;36809,652;   -5,630;37515,586; 0,00825
 854,40;36854,484;   -4,110;37405,395; 0,00644
 854,96;36616,125;   -5,260;37315,902; 0,00822
 855,52;36382,676;   -4,500;37316,402; 0,01100
 856,08;36295,266;   -4,570;37216,492; 0,01088
 856,63;36268,125;   -6,080;36964,410; 0,00826
 857,19;36246,598;   -4,570;36703,082; 0,00543
 857,75;36203,738;   -5,340;36666,941; 0,00552
 858,31;35980,938;   -5,220;36707,789; 0,00868
 858,86;35875,668;   -3,950;36879,777; 0,01199
 859,42;35892,148;   -4,950;36909,738; 0,01214
 859,98;36053,551;   -4,320;36842,648; 0,00940
 860,54;36110,633;   -4,540;36659,527; 0,00655
 861,10;36041,820;   -5,190;36584,188; 0,00649
 861,65;35957,504;   -4,120;36694,656; 0,00881
 862,21;35831,395;   -5,220;36660,086; 0,00993
 862,77;35848,953;   -4,290;36490,355; 0,00770
 863,32;36020,684;   -4,010;36334,434; 0,00377
 863,88;36071,414;   -4,960;36207,242; 0,00163
 864,44;35960,695;   -4,350;36195,191; 0,00282
 865,00;35816,766;   -4,890;36338,383; 0,00628
 865,55;35756,648;   -4,530;36454,859; 0,00840
 866,11;35975,527;   -4,170;36525,090; 0,00658
 866,67;36240,309;   -5,100;36497,379; 0,00307
 867,23;36417,148;   -4,070;36520,129; 0,00123
 867,78;36488,500;   -4,120;36745,898; 0,00305
 868,34;36365,762;   -4,920;36975,590; 0,00722
 868,90;36361,574;   -4,560;37163,855; 0,00948
 869,45;36552,344;   -5,330;37254,168; 0,00826
 870,01;36729,793;   -4,260;37184,188; 0,00534
 870,57;37001,945;   -4,680;37402,746; 0,00468
 871,12;37141,324;   -5,410;37642,445; 0,00582
 871,68;37087,797;   -3,800;37792,324; 0,00817
 872,24;37156,617;   -5,060;37797,984; 0,00743
 872,79;37354,477;   -5,420;37734,371; 0,00439
 873,35;37484,660;   -3,690;37482,363;-0,00003
 873,91;37370,539;   -5,580;37297,863;-0,00085
 874,46;37138,770;   -4,440;37222,730; 0,00098
 875,02;36792,492;   -5,110;37153,211; 0,00424
 875,57;36647,031;   -5,400;37063,281; 0,00490
 876,13;36566,480;   -4,270;36803,148; 0,00280
 876,69;36572,203;   -5,490;36535,637;-0,00043
 877,24;36295,832;   -3,930;36158,168;-0,00165
 877,80;35991,613;   -4,640;36014,527; 0,00028
 878,36;35623,266;   -5,170;35959,996; 0,00409
 878,91;35352,824;   -4,460;35862,516; 0,00622
 879,47;35183,277;   -4,690;35600,934; 0,00512
 880,02;35078,477;   -4,900;35271,266; 0,00238
 880,58;34877,879;   -4,280;34976,945; 0,00123
 881,14;34573,359;   -5,440;34835,012; 0,00327
 881,69;34214,539;   -3,970;34780,094; 0,00712
 882,25;33958,070;   -4,390;34664,441; 0,00894
 882,80;33897,570;   -4,610;34477,441; 0,00737
 883,36;33977,172;   -3,790;34282,492; 0,00388
 883,91;33973,453;   -5,750;34118,742; 0,00185
 884,47;33866,383;   -4,030;34084,180; 0,00278
 885,03;33637,914;   -4,410;34102,770; 0,00596
 885,58;33537,285;   -5,340;34129,238; 0,00760
 886,14;33455,484;   -4,480;34001,578; 0,00703
 886,69;33420,246;   -5,200;33810,406; 0,00504
 887,25;33316,738;   -3,760;33608,816; 0,00379
 887,80;33097,707;   -5,290;33492,945; 0,00515
 888,36;32886,328;   -5,510;33571,457; 0,00895
 888,91;32535,029;   -4,120;33467,977; 0,01228
 889,47;32356,301;   -5,000;33339,934; 0,01300
 890,02;32374,561;   -4,090;33163,242; 0,01045
 890,58;32402,732;   -4,300;33032,832; 0,00836
 891,13;32297,543;   -5,170;32901,523; 0,00805
 891,69;32166,174;   -4,250;32918,184; 0,01004
 892,24;31982,924;   -4,310;32904,180; 0,01233
 892,80;32022,545;   -5,000;32888,629; 0,01159
 893,35;32096,426;   -4,080;32761,551; 0,00891
 893,91;32204,197;   -5,720;32620,330; 0,00557
 894,46;32218,816;   -4,570;32561,859; 0,00460
 895,02;32080,398;   -4,130;32582,219; 0,00674
 895,57;31852,258;   -5,660;32614,008; 0,01026
 896,13;31713,750;   -4,610;32597,178; 0,01193
 896,68;31595,680;   -4,620;32444,516; 0,01151
 897,23;31492,150;   -4,980;32142,375; 0,00887
 897,79;31405,982;   -4,610;31984,695; 0,00793
 898,34;31156,992;   -5,650;31850,754; 0,00956
 898,90;31008,824;   -4,320;31925,283; 0,01265
 899,45;30914,324;   -5,500;31927,053; 0,01400
 900,01;30929,125;   -4,140;31785,332; 0,01186
 900,56;31000,215;   -3,550;31589,631; 0,00818
 901,11;30979,297;   -5,510;31348,570; 0,00515
 901,67;30826,617;   -4,410;31196,861; 0,00518
 902,22;30688,498;   -4,190;31177,561; 0,00687
 902,78;30429,488;   -4,830;31050,309; 0,00877
 903,33;30263,459;   -4,190;30847,609; 0,00830
 903,89;30217,779;   -5,500;30634,168; 0,00594
 904,44;30242,271;   -4,230;30420,217; 0,00255
 904,99;30200,662;   -4,000;30226,736; 0,00037
 905,55;30038,053;   -5,930;30092,195; 0,00078
 906,10;29877,072;   -4,430;30087,746; 0,00305
 906,65;29820,174;   -4,730;30120,855; 0,00436
 907,21;29838,064;   -5,170;30012,854; 0,00254
 907,76;29840,746;   -4,810;29810,984;-0,00043
 908,31;29804,166;   -5,540;29719,293;-0,00124
 908,87;29623,477;   -4,220;29663,463; 0,00059
 909,42;29332,758;   -3,690;29647,473; 0,00463
 909,97;29083,879;   -5,040;29572,311; 0,00723
 910,53;29005,629;   -4,190;29495,490; 0,00727
 911,08;28870,721;   -5,690;29214,279; 0,00514
 911,63;28790,320;   -3,770;28955,109; 0,00248
 912,19;28570,289;   -4,290;28735,680; 0,00251
 912,74;28395,320;   -5,150;28699,830; 0,00463
 913,29;28188,109;   -4,660;28721,289; 0,00814
 913,85;27962,170;   -5,020;28645,160; 0,01048
 914,40;27933,039;   -4,070;28581,270; 0,00996
 914,95;27849,609;   -4,650;28348,830; 0,00771
 915,51;27827,119;   -5,670;28200,381; 0,00579
 916,06;27649,830;   -4,280;28092,461; 0,00690
 916,61;27499,590;   -4,750;28121,199; 0,00971
 917,16;27351,891;   -4,520;28081,961; 0,01144
 917,72;27294,699;   -3,970;28049,000; 0,01184
 918,27;27283,449;   -5,550;27891,930; 0,00958
 918,82;27186,730;   -3,980;27662,609; 0,00754
 919,37;27061,750;   -4,650;27501,740; 0,00700
 919,93;26870,641;   -5,010;27419,330; 0,00878
 920,48;26525,020;   -3,750;27270,820; 0,01204
 921,03;26343,609;   -5,520;27171,270; 0,01343
 921,58;26199,230;   -3,900;26943,900; 0,01217
 922,14;26067,100;   -4,050;26615,811; 0,00905
 922,69;26035,830;   -5,640;26354,180; 0,00528
 923,24;25904,721;   -4,400;26127,160; 0,00371
 923,79;25657,250;   -4,740;25985,500; 0,00552
 924,35;25394,539;   -3,920;25857,740; 0,00785
 924,90;25263,939;   -4,090;25741,939; 0,00814
 925,45;25098,199;   -5,270;25454,740; 0,00612
 926,00;25069,850;   -3,280;25201,510; 0,00227
 926,55;25014,000;   -4,530;24949,189;-0,00113
 927,11;24870,801;   -5,800;24842,939;-0,00049
 927,66;24616,320;   -4,160;24811,561; 0,00343
 928,21;24371,680;   -5,290;24734,730; 0,00642
 928,76;24245,830;   -4,040;24691,910; 0,00792
 929,31;24171,369;   -4,140;24489,131; 0,00567
 929,86;24060,461;   -5,200;24238,141; 0,00319
 930,42;23942,320;   -3,790;24020,039; 0,00141
 930,97;23705,930;   -5,790;23847,570; 0,00259
 931,52;23401,699;   -4,480;23746,510; 0,00635
 932,07;23185,689;   -3,170;23652,949; 0,00866
 932,62;23099,420;   -5,580;23530,000; 0,00802
 933,17;22990,811;   -4,110;23323,000; 0,00623
 933,72;22910,561;   -4,590;23095,580; 0,00349
 934,28;22757,430;   -4,300;22848,529; 0,00173
 934,83;22596,840;   -3,710;22753,260; 0,00300
 935,38;22358,891;   -6,010;22663,721; 0,00588
 935,93;22174,391;   -4,180;22594,131; 0,00814
 936,48;22039,301;   -4,720;22472,600; 0,00845
 937,03;21951,971;   -5,110;22235,080; 0,00556
 937,58;21883,350;   -4,100;22003,100; 0,00237
 938,13;21799,891;   -5,240;21832,520; 0,00065
 938,68;21603,471;   -3,990;21712,061; 0,00218
 939,23;21388,391;   -3,880;21652,869; 0,00534
 939,79;21148,529;   -5,040;21531,080; 0,00778
 940,34;20964,850;   -4,280;21370,670; 0,00832
 940,89;20853,859;   -4,740;21143,570; 0,00599
 941,44;20741,830;   -4,380;20937,859; 0,00408
 941,99;20556,340;   -3,940;20713,020; 0,00330
 942,54;20292,359;   -5,480;20553,510; 0,00555
 943,09;20075,840;   -3,880;20518,150; 0,00946
 943,64;19832,980;   -5,090;20428,580; 0,01285
 944,19;19659,160;   -5,340;20244,400; 0,01274
 944,74;19533,230;   -3,710;19990,340; 0,01004
 945,29;19365,961;   -5,160;19701,869; 0,00747
 945,84;19200,350;   -4,400;19478,080; 0,00624
 946,39;18964,500;   -4,460;19328,900; 0,00826
 946,94;18657,221;   -5,410;19144,580; 0,01120
 947,49;18422,650;   -4,180;18995,801; 0,01330
 948,04;18239,410;   -4,610;18751,000; 0,01201
 948,59;18122,609;   -4,750;18516,260; 0,00933
 949,14;18009,590;   -4,850;18202,529; 0,00463
 949,69;17791,410;   -5,620;17879,500; 0,00214
 950,24;17572,631;   -3,790;17604,930; 0,00080
 950,79;17316,391;   -4,710;17388,359; 0,00180
 951,34;17077,801;   -4,520;17211,881; 0,00340
 951,89;16816,449;   -4,340;16947,631; 0,00337
 952,44;16631,061;   -5,480;16685,730; 0,00142
 952,99;16457,250;   -3,460;16423,381;-0,00089
 953,54;16228,040;   -4,130;16107,550;-0,00324
 954,09;16005,400;   -4,900;15947,700;-0,00157
 954,64;15713,710;   -4,360;15787,590; 0,00204
 955,19;15404,410;   -4,960;15627,850; 0,00625
 955,74;15173,110;   -3,830;15432,850; 0,00737
 956,28;14992,350;   -3,900;15220,770; 0,00657
 956,83;14870,980;   -4,570;15025,940; 0,00450
 957,38;14721,630;   -3,590;14838,800; 0,00344
 957,93;14619,430;   -4,570;14724,150; 0,00310
 958,48;14471,050;   -4,100;14665,350; 0,00579
 959,03;14317,570;   -3,640;14608,060; 0,00872
 959,58;14167,470;   -5,480;14492,230; 0,00984
 960,13;14085,610;   -3,420;14365,100; 0,00853
 960,68;14042,970;   -5,120;14249,030; 0,00632
 961,23;14022,780;   -4,390;14114,410; 0,00283
 961,77;13930,660;   -3,440;13983,050; 0,00163
 962,32;13818,090;   -5,450;13885,620; 0,00212
 962,87;13676,290;   -3,920;13808,710; 0,00418
 963,42;13552,880;   -3,800;13727,660; 0,00556
 963,97;13467,210;   -5,350;13657,580; 0,00609
 964,52;13374,220;   -4,310;13525,830; 0,00489
 965,07;13265,620;   -5,340;13368,940; 0,00337
 965,61;13117,730;   -4,500;13241,890; 0,00409
 966,16;12948,730;   -3,930;13124,990; 0,00587
 966,71;12773,090;   -5,570;13012,530; 0,00806
 967,26;12614,460;   -3,900;12932,280; 0,01080
 967,81;12488,610;   -4,880;12794,580; 0,01051
 968,36;12431,340;   -4,750;12663,010; 0,00802
 968,90;12370,350;   -3,700;12517,710; 0,00514
 969,45;12301,910;   -5,280;12380,350; 0,00276
 970,00;12197,290;   -4,240;12262,050; 0,00230
 970,55;12079,050;   -4,080;12179,800; 0,00361
 971,10;11956,670;   -4,430;12116,430; 0,00576
 971,64;11844,300;   -3,970;12057,160; 0,00773
 972,19;11770,830;   -4,840;11996,610; 0,00825
 972,74;11731,540;   -4,180;11908,770; 0,00651
 973,29;11661,570;   -3,310;11789,950; 0,00475
 973,84;11601,420;   -5,270;11723,120; 0,00453
 974,38;11520,720;   -4,280;11669,420; 0,00557
 974,93;11409,410;   -4,310;11642,110; 0,00877
 975,48;11329,150;   -4,660;11622,220; 0,01109
 976,03;11244,800;   -3,850;11562,770; 0,01211
 976,57;11166,330;   -4,910;11416,090; 0,00960
 977,12;11109,500;   -3,680;11257,500; 0,00575
 977,67;11059,680;   -4,510;11104,460; 0,00175
 978,21;10995,830;   -4,880;10977,750;-0,00071
 978,76;10898,270;   -4,210;10862,820;-0,00141
 979,31;10786,090;   -4,990;10802,560; 0,00066
 979,86;10699,450;   -4,870;10733,010; 0,00136
 980,40;10650,210;   -3,780;10699,350; 0,00200
 980,95;10591,870;   -5,350;10593,600; 0,00007
 981,50;10588,980;   -3,940;10520,320;-0,00282
 982,04;10538,290;   -5,130;10436,190;-0,00423
 982,59;10482,140;   -3,910;10381,160;-0,00420
 983,14;10395,890;   -4,120;10342,720;-0,00223
 983,68;10283,620;   -5,830;10300,750; 0,00072
 984,23;10211,380;   -3,910;10266,360; 0,00233
 984,78;10160,030;   -4,280;10226,470; 0,00283
 985,32;10114,650;   -4,320;10140,000; 0,00109
 985,87;10062,050;   -3,890;10071,630; 0,00041
 986,42; 9984,670;   -5,600; 9977,930;-0,00029
 986,96; 9885,340;   -4,570; 9921,120; 0,00157
 987,51; 9780,110;   -4,760; 9874,890; 0,00419
 988,06; 9657,760;   -4,790; 9810,200; 0,00680
 988,60; 9549,000;   -4,120; 9719,710; 0,00769
 989,15; 9499,120;   -4,600; 9652,510; 0,00695
 989,70; 9462,130;   -4,040; 9563,750; 0,00464
 990,24; 9405,030;   -4,030; 9430,500; 0,00117
 990,79; 9306,110;   -5,130; 9312,700; 0,00031
 991,33; 9201,700;   -4,770; 9226,600; 0,00117
 991,88; 9104,680;   -4,850; 9177,520; 0,00346
 992,43; 9033,020;   -4,530; 9132,280; 0,00474
 992,97; 8991,350;   -3,990; 9072,760; 0,00391
 993,52; 8957,150;   -4,940; 8971,290; 0,00068
 994,06; 8932,380;   -3,860; 8875,060;-0,00279
 994,61; 8884,280;   -4,220; 8780,240;-0,00511
 995,16; 8802,380;   -4,440; 8721,680;-0,00400
 995,70; 8701,900;   -3,890; 8661,180;-0,00204
 996,25; 8614,860;   -5,460; 8647,440; 0,00164
 996,79; 8550,490;   -4,010; 8634,880; 0,00426
 997,34; 8514,490;   -3,800; 8603,850; 0,00453
 997,88; 8493,770;   -4,800; 8566,220; 0,00369
 998,43; 8474,990;   -3,680; 8499,480; 0,00125
 998,97; 8425,590;   -4,770; 8419,500;-0,00031
 999,52; 8355,600;   -5,140; 8353,230;-0,00012
1000,06; 8274,270;   -3,880; 8296,500; 0,00116
1000,61; 8215,750;   -5,580; 8274,960; 0,00312
1001,15; 8161,760;   -3,870; 8240,260; 0,00416
1001,70; 8105,330;   -4,480; 8186,600; 0,00433
1002,24; 8059,960;   -4,730; 8111,070; 0,00274
1002,79; 8035,700;   -3,840; 8027,730;-0,00043
1003,33; 7974,360;   -5,170; 7938,970;-0,00193
1003,88; 7923,690;   -4,010; 7890,180;-0,00184
1004,42; 7848,580;   -4,140; 7838,240;-0,00057
1004,97; 7755,520;   -4,930; 7788,110; 0,00182
1005,51; 7670,470;   -3,720; 7743,680; 0,00412
1006,06; 7601,990;   -4,960; 7684,370; 0,00468
1006,60; 7556,850;   -3,890; 7618,230; 0,00351
1007,15; 7534,600;   -4,120; 7544,180; 0,00055
1007,69; 7489,000;   -5,130; 7490,870; 0,00011
1008,24; 7443,160;   -3,500; 7422,650;-0,00120
1008,78; 7377,430;   -4,430; 7389,340; 0,00070
1009,33; 7311,490;   -4,130; 7350,830; 0,00233
1009,87; 7242,480;   -4,660; 7327,530; 0,00507
1010,41; 7202,430;   -5,450; 7294,210; 0,00550
1010,96; 7163,860;   -3,650; 7239,370; 0,00455
1011,50; 7143,690;   -4,610; 7181,630; 0,00230
1012,05; 7121,680;   -4,640; 7118,770;-0,00018
1012,59; 7085,450;   -3,530; 7062,170;-0,00143
1013,13; 7027,270;   -5,390; 7007,280;-0,00124
1013,68; 6975,200;   -4,140; 6973,260;-0,00012
1014,22; 6903,640;   -4,620; 6936,690; 0,00207
1014,77; 6857,320;   -5,110; 6911,150; 0,00339
1015,31; 6840,930;   -3,800; 6873,530; 0,00206
1015,85; 6810,480;   -4,950; 6822,950; 0,00079
1016,40; 6766,580;   -4,760; 6766,320;-0,00002
1016,94; 6716,790;   -4,080; 6712,380;-0,00029
1017,48; 6654,990;   -5,310; 6690,510; 0,00231
1018,03; 6595,070;   -3,570; 6653,180; 0,00381
1018,57; 6526,300;   -4,790; 6622,100; 0,00632
1019,11; 6466,960;   -4,950; 6574,390; 0,00715
1019,66; 6417,520;   -3,740; 6520,850; 0,00693
1020,20; 6381,400;   -5,820; 6454,690; 0,00495
1020,74; 6315,650;   -4,550; 6370,180; 0,00373
1021,29; 6276,620;   -4,180; 6312,320; 0,00246
1021,83; 6203,800;   -4,970; 6253,340; 0,00345
1022,37; 6134,280;   -3,790; 6195,250; 0,00429
1022,92; 6056,220;   -5,190; 6157,300; 0,00718
1023,46; 5989,300;   -4,040; 6106,750; 0,00843
1024,00; 5941,090;   -4,280; 6052,410; 0,00806
1024,55; 5908,140;   -5,530; 5987,500; 0,00579
1025,09; 5880,780;   -3,150; 5937,720; 0,00418
1025,63; 5848,480;   -4,590; 5884,760; 0,00268
1026,17; 5809,960;   -4,470; 5822,410; 0,00093
1026,72; 5737,770;   -3,660; 5773,680; 0,00271
1027,26; 5697,790;   -5,330; 5759,420; 0,00467
1027,80; 5640,010;   -3,420; 5730,860; 0,00694
1028,35; 5582,570;   -5,270; 5701,320; 0,00913
1028,89; 5552,450;   -5,000; 5660,900; 0,00839
1029,43; 5537,080;   -4,110; 5617,530; 0,00626
1029,97; 5496,190;   -4,450; 5566,670; 0,00553
1030,52; 5468,290;   -4,520; 5514,780; 0,00367
1031,06; 5423,400;   -3,350; 5485,560; 0,00495
1031,60; 5370,110;   -4,860; 5430,060; 0,00482
1032,14; 5306,720;   -4,020; 5394,680; 0,00713
1032,68; 5248,560;   -4,850; 5361,300; 0,00922
1033,23; 5201,470;   -4,790; 5288,810; 0,00723
1033,77; 5143,360;   -4,840; 5222,130; 0,00659
1034,31; 5087,980;   -5,170; 5126,870; 0,00330
1034,85; 5030,550;   -3,610; 5040,150; 0,00083
1035,39; 4953,340;   -4,560; 4960,940; 0,00067
1035,94; 4894,230;   -4,660; 4888,580;-0,00050
1036,48; 4827,230;   -3,910; 4842,920; 0,00141
1037,02; 4749,610;   -4,900; 4781,210; 0,00288
1037,56; 4664,330;   -3,660; 4721,230; 0,00526
1038,10; 4593,780;   -4,400; 4651,920; 0,00546
1038,64; 4533,770;   -5,090; 4575,400; 0,00397
1039,19; 4478,040;   -3,720; 4511,040; 0,00319
1039,73; 4414,410;   -4,850; 4434,890; 0,00201
1040,27; 4350,450;   -4,480; 4372,810; 0,00222
1040,81; 4279,000;   -4,440; 4319,660; 0,00410
1041,35; 4200,500;   -5,480; 4272,220; 0,00734
1041,89; 4140,830;   -3,690; 4219,110; 0,00813
1042,43; 4083,890;   -5,000; 4169,110; 0,00896
1042,97; 4037,080;   -4,630; 4119,620; 0,00878
1043,52; 3992,690;   -3,910; 4060,000; 0,00725
1044,06; 3955,690;   -5,190; 3984,500; 0,00315
1044,60; 3918,520;   -4,720; 3926,570; 0,00089
1045,14; 3861,190;   -4,140; 3880,210; 0,00213
1045,68; 3808,820;   -5,290; 3822,130; 0,00151
1046,22; 3752,560;   -3,620; 3784,180; 0,00364
1046,76; 3705,950;   -4,790; 3737,080; 0,00363
1047,30; 3643,360;   -4,250; 3689,970; 0,00551
1047,84; 3597,910;   -4,250; 3624,250; 0,00316
1048,38; 3548,780;   -5,120; 3568,140; 0,00236
1048,92; 3506,510;   -4,300; 3509,530; 0,00037
1049,46; 3461,370;   -4,770; 3456,670;-0,00059
1050,00; 3408,650;   -4,210; 3412,450; 0,00048
1050,55; 3361,150;   -4,040; 3372,480; 0,00146
1051,09; 3306,160;   -5,440; 3325,460; 0,00252
1051,63; 3262,900;   -4,740; 3284,560; 0,00287
1052,17; 3220,080;   -4,640; 3243,940; 0,00320
1052,71; 3172,580;   -5,230; 3194,160; 0,00294
1053,25; 3125,630;   -4,280; 3144,530; 0,00261
1053,79; 3081,130;   -4,450; 3086,030; 0,00069
1054,33; 3037,750;   -4,350; 3029,710;-0,00115
1054,87; 2983,010;   -4,050; 2983,360; 0,00005
1055,41; 2932,970;   -5,180; 2943,960; 0,00162
1055,95; 2877,830;   -3,490; 2888,870; 0,00166
1056,49; 2822,580;   -4,900; 2852,440; 0,00456
1057,03; 2783,700;   -4,390; 2809,320; 0,00397
1057,57; 2744,610;   -4,180; 2764,880; 0,00319
1058,11; 2715,020;   -4,980; 2722,100; 0,00113
1058,64; 2689,480;   -3,250; 2679,390;-0,00163
1059,18; 2651,060;   -4,780; 2637,800;-0,00217
1059,72; 2615,010;   -4,450; 2605,280;-0,00162
1060,26; 2577,610;   -3,370; 2571,570;-0,00102
1060,80; 2540,070;   -5,500; 2546,510; 0,00110
1061,34; 2513,380;   -3,960; 2524,370; 0,00189
1061,88; 2478,250;   -3,520; 2490,380; 0,00212
1062,42; 2453,640;   -4,380; 2469,430; 0,00278
1062,96; 2426,390;   -4,110; 2434,410; 0,00143
1063,50; 2400,160;   -5,650; 2401,510; 0,00024
1064,04; 2369,420;   -4,180; 2368,990;-0,00008
1064,58; 2339,580;   -4,330; 2345,320; 0,00106
1065,12; 2310,120;   -4,940; 2316,780; 0,00125
1065,65; 2270,800;   -3,420; 2295,950; 0,00478
1066,19; 2240,260;   -4,790; 2264,790; 0,00472
1066,73; 2214,230;   -4,760; 2242,590; 0,00552
1067,27; 2183,230;   -4,100; 2203,600; 0,00403
1067,81; 2152,250;   -4,590; 2175,330; 0,00462
1068,35; 2129,720;   -3,730; 2142,590; 0,00261
1068,89; 2108,920;   -4,870; 2109,800; 0,00018
1069,43; 2074,550;   -4,460; 2083,900; 0,00195
1069,96; 2045,820;   -3,930; 2055,880; 0,00213
1070,50; 2015,500;   -4,530; 2032,320; 0,00360
1071,04; 1988,620;   -3,750; 2005,850; 0,00374
1071,58; 1961,220;   -4,060; 1986,250; 0,00550
1072,12; 1938,280;   -5,030; 1962,230; 0,00532
1072,66; 1913,280;   -2,940; 1933,470; 0,00455
1073,19; 1887,300;   -5,130; 1903,900; 0,00379
1073,73; 1864,290;   -4,740; 1873,820; 0,00221
1074,27; 1841,460;   -3,960; 1847,870; 0,00151
1074,81; 1816,410;   -4,740; 1819,760; 0,00080
1075,35; 1784,610;   -4,490; 1793,710; 0,00220
1075,88; 1755,080;   -4,880; 1773,490; 0,00452
1076,42; 1730,810;   -4,100; 1754,730; 0,00595
1076,96; 1710,270;   -3,970; 1732,540; 0,00561
1077,50; 1688,320;   -5,200; 1707,370; 0,00486
1078,04; 1673,610;   -4,150; 1682,070; 0,00218
1078,57; 1646,180;   -4,670; 1658,480; 0,00322
1079,11; 1629,610;   -5,360; 1641,060; 0,00303
1079,65; 1611,150;   -3,280; 1615,990; 0,00130
1080,19; 1582,950;   -5,700; 1594,990; 0,00328
1080,72; 1563,660;   -4,300; 1574,590; 0,00302
1081,26; 1539,500;   -4,130; 1555,990; 0,00461
1081,80; 1514,310;   -5,040; 1536,310; 0,00624
1082,33; 1495,270;   -4,540; 1517,330; 0,00634
1082,87; 1475,620;   -4,970; 1498,650; 0,00670
1083,41; 1455,340;   -4,350; 1473,650; 0,00541
1083,95; 1430,010;   -4,340; 1449,310; 0,00580
1084,48; 1411,900;   -5,020; 1427,430; 0,00473
1085,02; 1385,240;   -3,890; 1405,920; 0,00642
1085,56; 1362,460;   -4,700; 1382,280; 0,00625
1086,09; 1342,910;   -4,370; 1364,590; 0,00693
1086,63; 1320,860;   -4,040; 1342,520; 0,00704
1087,17; 1300,090;   -5,650; 1321,470; 0,00705
1087,70; 1275,420;   -3,660; 1300,870; 0,00856
1088,24; 1264,020;   -4,230; 1276,770; 0,00434
1088,78; 1244,670;   -4,890; 1256,280; 0,00402
1089,31; 1226,550;   -4,160; 1233,270; 0,00236
1089,85; 1204,580;   -5,030; 1215,390; 0,00386
1090,39; 1183,330;   -3,350; 1201,830; 0,00672
1090,92; 1166,700;   -3,870; 1182,580; 0,00585
1091,46; 1143,000;   -5,520; 1168,890; 0,00968
1092,00; 1132,590;   -4,280; 1151,670; 0,00723
1092,53; 1110,990;   -4,540; 1133,740; 0,00877
1093,07; 1092,680;   -4,410; 1118,370; 0,01005
1093,60; 1084,770;   -4,200; 1097,380; 0,00500
1094,14; 1063,880;   -4,850; 1081,900; 0,00726
1094,68; 1050,920;   -3,430; 1066,650; 0,00643
1095,21; 1034,430;   -4,650; 1051,160; 0,00694
1095,75; 1014,430;   -4,740; 1038,000; 0,00993
1096,28;  997,820;   -4,820; 1025,030; 0,01163
1096,82;  985,280;   -4,770; 1010,930; 0,01111
1097,36;  972,170;   -4,400;  996,940; 0,01088
1097,89;  956,730;   -4,290;  980,350; 0,01055
1098,43;  943,940;   -4,340;  962,230; 0,00830
1098,96;  932,670;   -4,080;  949,140; 0,00757
1099,50;  926,260;   -4,960;  931,550; 0,00246
1100,03;  908,660;   -4,130;  916,290; 0,00362

