AE-588-10-2
Integration time [ms]:   9,690
Averaging Nr. [scans]: 100
Smoothing Nr. [pixels]: 0
Data measured with spectrometer [name]: 7420287SP
Wave   ;Sample   ;Dark     ;Reference;Absorbance
[nm]   ;[counts] ;[counts] ;[counts] ;[A.U]

 179,38;  -28,524;   -4,780;    9,642; 5,00000
 179,98;  -29,446;   -7,630;    7,654; 5,00000
 180,58;  -21,810;   -6,150;   18,042; 5,00000
 181,18;  -26,422;   -5,490;   10,441; 5,00000
 181,78;  -35,210;   -7,850;    3,876; 5,00000
 182,38;  -38,211;   -5,070;   -1,737; 5,00000
 182,97;  -37,047;   -6,160;   -0,272; 5,00000
 183,57;  -38,031;   -7,380;   -0,847; 5,00000
 184,17;  -46,757;   -5,470;  -12,280; 0,00000
 184,77;  -52,599;   -8,190;  -16,447; 0,00000
 185,37;  -56,482;   -6,180;  -21,363; 0,00000
 185,97;  -62,218;   -6,830;  -26,555; 0,00000
 186,57;  -60,443;   -8,410;  -25,076; 0,00000
 187,17;  -69,891;   -5,330;  -35,589; 0,00000
 187,77;  -91,874;   -8,020;  -61,112; 0,00000
 188,37;  -83,300;   -6,470;  -53,102; 0,00000
 188,97; -100,521;   -6,070;  -74,428; 0,00000
 189,57; -102,426;   -8,600;  -73,007; 0,00000
 190,17; -118,574;   -5,820;  -91,197; 0,00000
 190,77; -125,350;   -8,290;  -97,634; 0,00000
 191,37; -138,849;   -7,490; -115,148; 0,00000
 191,96; -151,536;   -5,980; -127,654; 0,00000
 192,56; -185,829;   -8,330; -166,777; 0,00000
 193,16; -174,627;   -5,700; -154,698; 0,00000
 193,76; -152,646;   -6,890; -130,812; 0,00000
 194,36; -201,128;   -7,860; -183,876; 0,00000
 194,96; -204,210;   -5,210; -188,808; 0,00000
 195,56; -160,466;   -7,780; -140,044; 0,00000
 196,16; -121,271;   -5,880;  -96,836; 0,00000
 196,76;  -74,549;   -6,350;  -42,974; 0,00000
 197,36;  -64,827;   -7,930;  -32,036; 0,00000
 197,95;  -43,917;   -5,170;   -7,472; 0,00000
 198,55;  -54,153;   -6,430;  -19,902; 0,00000
 199,15;  -44,257;   -6,420;  -10,154; 0,00000
 199,75;  -33,772;   -5,640;    3,047; 5,00000
 200,35;  -47,040;   -7,820;  -11,074; 0,00000
 200,95;  -38,964;   -5,370;   -0,246; 5,00000
 201,55;  -39,904;   -6,550;   -2,298; 5,00000
 202,15;  -39,019;   -6,930;   -3,825; 5,00000
 202,74;  -29,831;   -4,480;   10,613; 5,00000
 203,34;  -38,230;   -7,210;   -1,894; 5,00000
 203,94;  -22,685;   -5,210;   16,701; 5,00000
 204,54;  -36,243;   -5,630;    0,182; 5,00000
 205,14;  -26,252;   -7,090;   10,377; 5,00000
 205,74;  -32,526;   -4,860;    7,344; 5,00000
 206,34;  -31,814;   -7,580;    6,432; 5,00000
 206,93;  -28,685;   -5,540;   10,407; 5,00000
 207,53;  -31,364;   -5,140;    8,209; 5,00000
 208,13;  -33,206;   -7,490;    4,404; 5,00000
 208,73;  -24,435;   -4,220;   12,931; 5,00000
 209,33;  -40,800;   -6,340;   -3,028; 5,00000
 209,93;  -27,760;   -5,260;    9,884; 5,00000
 210,52;  -31,205;   -5,140;    7,457; 5,00000
 211,12;  -21,314;   -7,170;   20,679; 5,00000
 211,72;  -27,030;   -4,200;   12,612; 5,00000
 212,32;  -25,108;   -5,360;   14,127; 5,00000
 212,92;  -30,165;   -6,240;    9,015; 5,00000
 213,52;  -28,563;   -4,370;   10,932; 5,00000
 214,11;  -30,828;   -7,060;    7,944; 5,00000
 214,71;  -20,834;   -4,420;   17,972; 5,00000
 215,31;  -32,387;   -5,190;    8,396; 5,00000
 215,91;  -13,633;   -6,460;   25,688; 5,00000
 216,51;  -25,471;   -3,960;   13,418; 5,00000
 217,10;  -26,239;   -5,860;   15,425; 5,00000
 217,70;  -31,397;   -5,330;    8,768; 5,00000
 218,30;  -21,512;   -4,860;   20,297; 5,00000
 218,90;  -31,115;   -6,960;    7,965; 5,00000
 219,50;  -20,859;   -3,510;   20,921; 5,00000
 220,09;  -19,487;   -5,530;   21,188; 5,00000
 220,69;  -22,901;   -5,860;   20,203; 5,00000
 221,29;  -19,257;   -3,900;   23,570; 5,00000
 221,89;  -37,778;   -6,260;    2,557; 5,00000
 222,49;  -21,029;   -4,320;   20,415; 5,00000
 223,08;  -21,844;   -4,430;   22,382; 5,00000
 223,68;  -16,997;   -6,230;   24,830; 5,00000
 224,28;  -28,130;   -3,350;   14,586; 5,00000
 224,88;  -27,615;   -5,660;   15,803; 5,00000
 225,47;  -27,887;   -4,850;   12,220; 5,00000
 226,07;  -20,474;   -4,550;   23,754; 5,00000
 226,67;  -27,462;   -6,160;   19,475; 5,00000
 227,27;  -19,451;   -3,840;   24,615; 5,00000
 227,87;  -27,430;   -4,560;   17,044; 5,00000
 228,46;  -21,771;   -5,380;   23,688; 5,00000
 229,06;  -29,187;   -4,080;   15,108; 5,00000
 229,66;  -20,664;   -6,230;   24,844; 5,00000
 230,26;  -27,592;   -3,890;   16,289; 5,00000
 230,85;  -32,153;   -4,520;   11,206; 5,00000
 231,45;  -31,866;   -6,540;   12,934; 5,00000
 232,05;  -23,445;   -3,360;   22,243; 5,00000
 232,64;  -35,173;   -5,960;    9,668; 5,00000
 233,24;  -36,180;   -4,400;    5,786; 5,00000
 233,84;  -40,384;   -4,440;    5,740; 5,00000
 234,44;  -33,698;   -6,390;    9,899; 5,00000
 235,03;  -46,617;   -3,220;   -3,246; 0,00000
 235,63;  -37,744;   -5,320;    6,827; 5,00000
 236,23;  -24,954;   -5,720;   20,489; 5,00000
 236,83;  -27,859;   -3,250;   23,501; 5,00000
 237,42;  -27,904;   -6,420;   19,164; 5,00000
 238,02;  -42,420;   -3,210;    3,030; 5,00000
 238,62;  -26,592;   -5,200;   24,261; 5,00000
 239,21;  -31,080;   -5,630;   18,180; 5,00000
 239,81;  -27,301;   -3,600;   20,455; 5,00000
 240,41;  -30,678;   -6,240;   17,131; 5,00000
 241,00;  -33,343;   -4,920;   15,962; 5,00000
 241,60;  -35,665;   -5,080;   16,963; 5,00000
 242,20;  -30,371;   -6,810;   17,218; 5,00000
 242,80;  -32,540;   -4,010;   15,650; 5,00000
 243,39;  -23,940;   -5,560;   27,896; 5,00000
 243,99;  -35,057;   -4,610;   14,498; 5,00000
 244,59;  -32,468;   -4,410;   19,459; 5,00000
 245,18;  -36,353;   -6,400;   14,882; 5,00000
 245,78;  -37,440;   -4,420;   13,744; 5,00000
 246,38;  -38,393;   -6,170;   12,292; 5,00000
 246,97;  -25,048;   -6,350;   25,784; 5,00000
 247,57;  -24,878;   -3,710;   30,369; 5,00000
 248,17;  -27,235;   -6,710;   24,923; 5,00000
 248,76;  -28,864;   -4,130;   24,599; 5,00000
 249,36;  -24,294;   -5,360;   32,036; 5,00000
 249,96;  -27,468;   -6,660;   26,784; 5,00000
 250,55;  -16,397;   -4,170;   40,486; 5,00000
 251,15;  -28,223;   -6,740;   28,462; 5,00000
 251,75;  -20,961;   -4,860;   35,915; 5,00000
 252,34;  -26,863;   -4,260;   33,482; 5,00000
 252,94;  -13,762;   -6,520;   43,485; 5,00000
 253,54;  -28,442;   -4,210;   30,447; 5,00000
 254,13;  -25,583;   -6,220;   35,060; 5,00000
 254,73;  -10,733;   -5,630;   49,590; 5,00000
 255,32;  -31,924;   -3,900;   27,972; 5,00000
 255,92;  -19,592;   -6,620;   42,071; 5,00000
 256,52;  -23,971;   -4,410;   39,080; 5,00000
 257,11;  -25,513;   -5,650;   39,378; 5,00000
 257,71;   -9,776;   -5,820;   54,086; 5,00000
 258,31;  -20,956;   -3,670;   44,124; 5,00000
 258,90;  -25,600;   -7,110;   40,022; 5,00000
 259,50;  -18,659;   -4,770;   47,553; 5,00000
 260,09;  -24,646;   -4,230;   43,979; 5,00000
 260,69;  -21,626;   -6,010;   49,474; 5,00000
 261,29;  -16,567;   -3,740;   51,462; 5,00000
 261,88;  -22,124;   -5,950;   49,496; 5,00000
 262,48;  -19,511;   -5,710;   50,633; 5,00000
 263,07;  -24,415;   -4,030;   48,531; 5,00000
 263,67;  -19,171;   -6,310;   53,393; 5,00000
 264,27;  -10,971;   -4,290;   66,978; 5,00000
 264,86;  -17,477;   -5,760;   61,318; 5,00000
 265,46;  -17,510;   -6,230;   60,558; 5,00000
 266,05;   -8,734;   -4,010;   70,816; 5,00000
 266,65;  -18,812;   -6,250;   61,559; 5,00000
 267,24;  -17,207;   -4,860;   65,620; 5,00000
 267,84;  -17,965;   -5,280;   67,767; 5,00000
 268,44;  -26,648;   -6,710;   56,354; 5,00000
 269,03;  -18,872;   -3,980;   70,679; 5,00000
 269,63;  -16,527;   -5,860;   71,148; 5,00000
 270,22;  -17,992;   -5,030;   76,457; 5,00000
 270,82;  -20,444;   -4,350;   76,072; 5,00000
 271,41;  -16,617;   -6,720;   80,218; 5,00000
 272,01;  -26,235;   -4,290;   72,405; 5,00000
 272,61;  -14,025;   -6,240;   91,911; 5,00000
 273,20;  -18,607;   -6,380;   86,450; 5,00000
 273,80;  -17,327;   -3,470;   96,226; 5,00000
 274,39;  -15,190;   -6,450;   99,176; 5,00000
 274,99;  -16,494;   -4,700;  101,672; 5,00000
 275,58;  -12,063;   -4,340;  112,102; 5,00000
 276,18;  -17,129;   -6,150;  109,315; 5,00000
 276,77;   -9,378;   -3,990;  125,233; 5,00000
 277,37;  -14,154;   -6,180;  123,712; 5,00000
 277,96;  -16,905;   -5,350;  123,813; 5,00000
 278,56;   -8,445;   -4,010;  138,717; 5,00000
 279,15;  -11,763;   -6,170;  141,128; 5,00000
 279,75;  -21,973;   -4,360;  135,936; 5,00000
 280,34;  -11,811;   -5,340;  158,745; 5,00000
 280,94;   -9,821;   -5,920;  170,465; 5,00000
 281,53;  -19,014;   -4,190;  179,739; 5,00000
 282,13;  -21,467;   -6,030;  202,550; 5,00000
 282,73;  -10,869;   -4,670;  249,565; 5,00000
 283,32;  -13,339;   -4,840;  295,785; 5,00000
 283,92;  -18,559;   -6,480;  350,058; 5,00000
 284,51;   -7,562;   -3,500;  450,067; 5,00000
 285,10;  -16,240;   -6,420;  556,822; 5,00000
 285,70;  -18,447;   -4,810;  710,068; 5,00000
 286,29;  -10,821;   -4,870;  917,935; 5,00000
 286,89;   -3,267;   -6,230; 1142,936; 2,58870
 287,48;  -17,472;   -3,060; 1363,899; 5,00000
 288,08;  -13,108;   -5,350; 1608,291; 5,00000
 288,67;  -15,104;   -5,750; 1829,179; 5,00000
 289,27;  -18,374;   -4,030; 2017,092; 5,00000
 289,86;   -6,699;   -6,720; 2183,255; 5,00000
 290,46;   -8,121;   -3,590; 2255,528; 5,00000
 291,05;   -8,516;   -5,280; 2278,086; 5,00000
 291,65;  -11,218;   -5,770; 2332,934; 5,00000
 292,24;   -7,566;   -3,720; 2552,239; 5,00000
 292,84;   -8,572;   -5,900; 2958,545; 5,00000
 293,43;   -4,375;   -4,150; 3599,083; 5,00000
 294,03;   -4,290;   -5,380; 4409,436; 3,60737
 294,62;    1,103;   -6,190; 5326,548; 2,86404
 295,21;    7,102;   -3,790; 6295,813; 2,76219
 295,81;   13,820;   -5,700; 7255,734; 2,57054
 296,40;   10,940;   -6,170; 8095,972; 2,67536
 297,00;   27,728;   -4,000; 8808,847; 2,44368
 297,59;   37,472;   -7,030; 9252,044; 2,31818
 298,19;   53,078;   -3,590; 9584,079; 2,22837
 298,78;   49,106;   -5,260;10130,170; 2,27052
 299,37;   64,001;   -5,820;10898,179; 2,19360
 299,97;   90,824;   -3,920;11599,709; 2,08804
 300,56;   93,907;   -5,660;12063,229; 2,08355
 301,16;  109,514;   -4,810;12421,324; 2,03620
 301,75;  117,897;   -5,010;12788,248; 2,01741
 302,35;  129,826;   -6,890;13235,074; 1,98613
 302,94;  138,695;   -4,080;13678,171; 1,98151
 303,53;  170,584;   -5,720;14047,597; 1,90152
 304,13;  184,962;   -4,810;14337,417; 1,87839
 304,72;  197,840;   -3,720;14625,064; 1,86080
 305,32;  222,129;   -6,860;14911,958; 1,81392
 305,91;  234,223;   -3,690;15130,206; 1,80353
 306,50;  253,802;   -5,810;15329,020; 1,77135
 307,10;  280,296;   -5,760;15505,142; 1,73419
 307,69;  296,131;   -3,650;15636,570; 1,71744
 308,28;  306,169;   -5,840;15748,720; 1,70324
 308,88;  335,180;   -5,010;15850,252; 1,66845
 309,47;  335,592;   -4,990;15883,911; 1,66887
 310,07;  353,235;   -6,000;15921,501; 1,64677
 310,66;  366,625;   -3,820;15967,885; 1,63463
 311,25;  401,209;   -5,450;16068,514; 1,59689
 311,85;  418,036;   -5,510;16178,010; 1,58217
 312,44;  457,410;   -4,270;16308,756; 1,54819
 313,03;  504,432;   -6,710;16460,342; 1,50807
 313,63;  558,859;   -4,010;16585,109; 1,46942
 314,22;  617,767;   -5,120;16667,021; 1,42758
 314,81;  688,568;   -5,430;16717,834; 1,38196
 315,41;  773,972;   -3,960;16803,449; 1,33456
 316,00;  853,142;   -6,200;16782,566; 1,29085
 316,59;  953,921;   -3,280;16778,123; 1,24383
 317,19; 1063,130;   -4,950;16766,432; 1,19597
 317,78; 1180,200;   -6,410;16835,494; 1,15208
 318,37; 1311,108;   -4,130;16993,324; 1,11138
 318,97; 1440,040;   -6,310;17218,209; 1,07587
 319,56; 1596,586;   -5,020;17499,730; 1,03860
 320,15; 1737,536;   -4,860;17772,227; 1,00871
 320,75; 1895,576;   -6,580;18016,904; 0,97659
 321,34; 2027,401;   -2,810;18165,693; 0,95178
 321,93; 2164,434;   -5,580;18317,334; 0,92653
 322,53; 2284,616;   -5,430;18391,090; 0,90489
 323,12; 2403,414;   -4,080;18444,893; 0,88441
 323,71; 2510,729;   -6,840;18468,502; 0,86561
 324,31; 2613,100;   -4,070;18458,053; 0,84845
 324,90; 2712,672;   -5,170;18461,061; 0,83215
 325,49; 2803,101;   -6,050;18434,539; 0,81720
 326,09; 2897,331;   -3,950;18376,580; 0,80177
 326,68; 2980,636;   -6,440;18351,377; 0,78857
 327,27; 3054,465;   -4,720;18289,098; 0,77670
 327,86; 3135,600;   -4,460;18275,031; 0,76503
 328,46; 3212,365;   -5,630;18220,203; 0,75310
 329,05; 3300,342;   -3,940;18186,957; 0,74078
 329,64; 3368,157;   -6,020;18159,414; 0,73108
 330,23; 3445,511;   -5,720;18146,670; 0,72096
 330,83; 3486,965;   -3,750;18031,033; 0,71320
 331,42; 3552,793;   -6,770;17943,037; 0,70266
 332,01; 3593,522;   -4,640;17821,326; 0,69497
 332,61; 3621,606;   -5,260;17666,232; 0,68774
 333,20; 3652,707;   -5,550;17512,982; 0,68022
 333,79; 3702,591;   -3,310;17483,043; 0,67381
 334,38; 3793,469;   -6,460;17575,656; 0,66530
 334,98; 3891,837;   -4,320;17768,723; 0,65913
 335,57; 3998,456;   -4,880;17997,014; 0,65290
 336,16; 4069,825;   -5,970;18170,605; 0,64930
 336,75; 4141,854;   -4,000;18260,432; 0,64399
 337,34; 4207,585;   -6,130;18310,629; 0,63818
 337,94; 4249,119;   -5,010;18317,754; 0,63418
 338,53; 4284,095;   -3,830;18310,598; 0,63055
 339,12; 4311,855;   -6,310;18248,928; 0,62609
 339,71; 4333,841;   -3,300;18161,355; 0,62202
 340,31; 4332,412;   -5,010;18006,197; 0,61831
 340,90; 4323,172;   -5,680;17778,633; 0,61366
 341,49; 4238,240;   -3,280;17356,402; 0,61202
 342,08; 4142,171;   -6,350;16887,732; 0,60984
 342,67; 4111,236;   -4,430;16642,740; 0,60690
 343,27; 4136,431;   -5,060;16691,141; 0,60546
 343,86; 4211,436;   -6,150;16893,313; 0,60281
 344,45; 4279,504;   -3,700;17089,189; 0,60105
 345,04; 4331,790;   -5,310;17198,613; 0,59843
 345,63; 4360,226;   -4,710;17220,352; 0,59618
 346,23; 4394,104;   -3,850;17253,592; 0,59373
 346,82; 4388,251;   -6,740;17182,570; 0,59230
 347,41; 4401,460;   -4,160;17095,346; 0,58898
 348,00; 4372,061;   -5,850;16918,330; 0,58724
 348,59; 4344,387;   -4,940;16735,842; 0,58535
 349,19; 4330,802;   -3,610;16599,799; 0,58327
 349,78; 4327,690;   -5,950;16486,063; 0,58042
 350,37; 4316,825;   -4,110;16374,633; 0,57870
 350,96; 4294,181;   -5,000;16238,950; 0,57731
 351,55; 4258,695;   -5,380;16047,035; 0,57572
 352,14; 4241,436;   -4,860;15895,560; 0,57340
 352,74; 4205,775;   -6,430;15687,295; 0,57122
 353,33; 4161,460;   -4,330;15445,012; 0,56921
 353,92; 4095,742;   -4,190;15196,371; 0,56908
 354,51; 4035,860;   -6,720;14916,836; 0,56721
 355,10; 3991,790;   -3,610;14703,716; 0,56597
 355,69; 3952,939;   -5,950;14551,370; 0,56551
 356,28; 3988,834;   -5,280;14569,074; 0,56217
 356,88; 4004,669;   -4,130;14602,346; 0,56153
 357,47; 4047,995;   -6,580;14700,695; 0,55959
 358,06; 4070,517;   -4,170;14734,420; 0,55836
 358,65; 4085,459;   -5,390;14742,403; 0,55691
 359,24; 4082,041;   -5,530;14676,663; 0,55533
 359,83; 4085,010;   -3,110;14618,404; 0,55347
 360,42; 4072,702;   -6,480;14545,224; 0,55234
 361,01; 4073,491;   -4,820;14450,780; 0,54956
 361,61; 4050,540;   -4,620;14364,586; 0,54942
 362,20; 4033,601;   -5,280;14250,755; 0,54774
 362,79; 3991,670;   -3,790;14034,832; 0,54576
 363,38; 3927,029;   -5,870;13755,256; 0,54394
 363,97; 3843,469;   -4,940;13377,540; 0,54126
 364,56; 3731,804;   -3,930;12975,942; 0,54089
 365,15; 3684,705;   -6,350;12776,278; 0,53947
 365,74; 3763,405;   -3,690;12984,646; 0,53755
 366,33; 3898,383;   -5,160;13371,676; 0,53489
 366,92; 3997,641;   -5,700;13621,975; 0,53200
 367,51; 4024,553;   -3,490;13685,485; 0,53128
 368,11; 4024,167;   -6,120;13634,548; 0,52950
 368,70; 4054,486;   -4,990;13634,020; 0,52631
 369,29; 4034,028;   -4,480;13529,364; 0,52520
 369,88; 3984,792;   -6,350;13351,377; 0,52464
 370,47; 3961,301;   -3,920;13186,799; 0,52200
 371,06; 3952,750;   -6,090;13122,322; 0,52064
 371,65; 3974,592;   -5,070;13090,961; 0,51729
 372,24; 3957,253;   -4,660;12988,778; 0,51582
 372,83; 3928,697;   -6,460;12862,860; 0,51459
 373,42; 3916,881;   -4,110;12776,265; 0,51315
 374,01; 3907,948;   -5,190;12691,807; 0,51118
 374,60; 3926,742;   -5,360;12693,527; 0,50914
 375,19; 3927,226;   -4,040;12667,279; 0,50829
 375,78; 3935,600;   -6,500;12630,312; 0,50591
 376,37; 3999,688;   -4,320;12746,387; 0,50304
 376,96; 4094,039;   -4,480;12988,737; 0,50109
 377,55; 4195,525;   -5,840;13265,741; 0,49953
 378,14; 4325,196;   -3,780;13621,909; 0,49797
 378,73; 4442,516;   -6,010;13938,688; 0,49619
 379,32; 4446,834;   -4,080;13920,236; 0,49532
 379,91; 4419,995;   -4,420;13775,655; 0,49340
 380,50; 4404,451;   -5,980;13686,652; 0,49201
 381,09; 4349,853;   -3,960;13463,714; 0,49042
 381,68; 4353,518;   -6,020;13465,139; 0,48996
 382,27; 4391,468;   -6,230;13545,749; 0,48878
 382,86; 4382,590;   -3,740;13430,179; 0,48610
 383,45; 4311,054;   -6,140;13225,294; 0,48641
 384,04; 4241,055;   -3,990;12935,213; 0,48403
 384,63; 4123,586;   -5,480;12545,491; 0,48283
 385,22; 4031,943;   -6,020;12289,184; 0,48357
 385,81; 4092,356;   -3,100;12392,149; 0,48095
 386,40; 4222,396;   -6,100;12754,760; 0,47969
 386,99; 4382,822;   -4,760;13197,871; 0,47844
 387,58; 4511,877;   -4,060;13556,345; 0,47752
 388,17; 4593,264;   -6,600;13749,652; 0,47576
 388,76; 4549,605;   -3,930;13582,485; 0,47476
 389,35; 4457,672;   -6,040;13281,674; 0,47375
 389,94; 4463,917;   -5,330;13274,064; 0,47294
 390,53; 4490,576;   -3,870;13364,350; 0,47340
 391,12; 4565,128;   -5,320;13559,734; 0,47246
 391,71; 4742,855;   -4,690;14008,485; 0,47007
 392,30; 4932,425;   -4,790;14527,415; 0,46885
 392,89; 4913,325;   -6,040;14452,011; 0,46820
 393,48; 4690,629;   -3,930;13747,586; 0,46676
 394,07; 4558,575;   -5,990;13318,903; 0,46526
 394,66; 4511,963;   -4,410;13131,462; 0,46367
 395,25; 4442,384;   -5,010;12936,246; 0,46387
 395,84; 4437,548;   -5,850;12897,604; 0,46299
 396,43; 4524,503;   -3,600;13108,500; 0,46176
 397,01; 4694,302;   -6,210;13558,529; 0,46027
 397,60; 4949,509;   -4,510;14240,773; 0,45871
 398,19; 5122,764;   -4,800;14672,839; 0,45675
 398,78; 4986,405;   -6,100;14270,473; 0,45631
 399,37; 4785,071;   -3,820;13673,480; 0,45577
 399,96; 4629,692;   -4,920;13234,441; 0,45585
 400,55; 4597,689;   -5,760;13101,014; 0,45441
 401,14; 4540,204;   -3,240;12889,986; 0,45298
 401,73; 4438,746;   -6,480;12613,229; 0,45316
 402,32; 4408,459;   -3,290;12505,410; 0,45260
 402,91; 4383,708;   -4,570;12432,284; 0,45242
 403,49; 4402,194;   -5,300;12431,459; 0,45052
 404,08; 4407,802;   -4,180;12460,587; 0,45105
 404,67; 4440,383;   -5,880;12504,815; 0,44929
 405,26; 4359,141;   -5,670;12311,683; 0,45055
 405,85; 4155,517;   -4,440;11725,729; 0,45022
 406,44; 3985,179;   -6,340;11278,098; 0,45134
 407,03; 3955,010;   -3,560;11158,742; 0,45022
 407,62; 4036,638;   -5,390;11361,517; 0,44904
 408,20; 4197,343;   -6,180;11783,466; 0,44789
 408,79; 4218,218;   -3,660;11842,689; 0,44808
 409,38; 4165,006;   -6,330;11719,880; 0,44888
 409,97; 4048,936;   -4,140;11365,987; 0,44798
 410,56; 3907,714;   -5,060;10981,513; 0,44838
 411,15; 3816,203;   -5,920;10751,048; 0,44939
 411,73; 3769,673;   -3,940;10618,826; 0,44948
 412,32; 3756,626;   -5,960;10604,392; 0,45024
 412,91; 3718,901;   -5,240;10511,155; 0,45084
 413,50; 3646,603;   -4,690;10311,108; 0,45106
 414,09; 3545,840;   -5,980;10047,076; 0,45185
 414,68; 3472,874;   -4,050; 9904,584; 0,45482
 415,26; 3473,161;   -5,410; 9920,323; 0,45536
 415,85; 3535,627;   -5,080;10130,022; 0,45674
 416,44; 3600,481;   -4,350;10299,771; 0,45613
 417,03; 3637,934;   -6,130;10425,313; 0,45676
 417,62; 3662,582;   -4,260;10540,432; 0,45874
 418,21; 3725,231;   -5,330;10726,143; 0,45889
 418,79; 3794,009;   -6,050;10951,617; 0,45993
 419,38; 3859,003;   -3,550;11177,561; 0,46161
 419,97; 3967,389;   -5,830;11562,163; 0,46412
 420,56; 4186,472;   -4,740;12196,712; 0,46407
 421,15; 4423,719;   -5,080;12885,605; 0,46399
 421,73; 4374,513;   -6,150;12803,525; 0,46600
 422,32; 4123,091;   -3,540;12133,022; 0,46850
 422,91; 3925,009;   -5,990;11540,543; 0,46795
 423,50; 3782,294;   -5,510;11187,866; 0,47057
 424,08; 3738,537;   -4,360;11084,756; 0,47169
 424,67; 3708,656;   -6,000;11072,447; 0,47456
 425,26; 3585,776;   -4,050;10757,804; 0,47681
 425,85; 3471,570;   -5,580;10461,674; 0,47861
 426,43; 3452,705;   -5,670;10469,846; 0,48130
 427,02; 3544,575;   -4,310;10765,223; 0,48210
 427,61; 3557,413;   -6,340;10848,140; 0,48370
 428,20; 3641,428;   -4,300;11124,399; 0,48466
 428,79; 3856,589;   -4,290;11868,775; 0,48788
 429,37; 4215,728;   -6,260;12959,793; 0,48729
 429,96; 4268,053;   -3,620;13168,098; 0,48904
 430,55; 4047,994;   -5,960;12531,442; 0,49033
 431,13; 3639,973;   -5,060;11327,466; 0,49263
 431,72; 3308,645;   -4,360;10371,139; 0,49579
 432,31; 3225,820;   -6,460;10146,670; 0,49709
 432,90; 3445,970;   -3,700;10868,992; 0,49856
 433,48; 3717,216;   -5,740;11741,529; 0,49905
 434,07; 3449,523;   -6,020;10946,273; 0,50099
 434,66; 3300,219;   -3,640;10515,105; 0,50294
 435,25; 3235,598;   -6,870;10337,312; 0,50382
 435,83; 3255,267;   -4,200;10470,471; 0,50699
 436,42; 3225,521;   -4,290;10424,336; 0,50905
 437,01; 3092,872;   -5,640;10022,201; 0,51005
 437,59; 3056,563;   -4,200; 9986,498; 0,51377
 438,18; 3108,021;   -6,390;10159,918; 0,51379
 438,77; 3070,569;   -4,520;10077,333; 0,51568
 439,35; 3002,497;   -4,360; 9897,078; 0,51759
 439,94; 2971,140;   -5,980; 9859,534; 0,52032
 440,53; 3207,780;   -4,050;10662,452; 0,52127
 441,11; 3491,219;   -6,050;11585,689; 0,52042
 441,70; 3410,484;   -5,360;11360,104; 0,52209
 442,29; 3310,948;   -3,840;11073,271; 0,52397
 442,87; 3373,243;   -5,960;11309,286; 0,52485
 443,46; 3371,597;   -4,420;11346,349; 0,52662
 444,05; 3244,427;   -5,340;11007,648; 0,53005
 444,63; 3178,642;   -5,450;10824,637; 0,53165
 445,22; 3092,894;   -4,770;10548,185; 0,53234
 445,81; 3096,716;   -6,060;10603,813; 0,53396
 446,39; 3060,833;   -4,730;10548,138; 0,53686
 446,98; 2891,955;   -4,910;10079,995; 0,54174
 447,57; 2797,135;   -5,830; 9733,639; 0,54092
 448,15; 2737,035;   -3,900; 9587,955; 0,54400
 448,74; 2764,056;   -5,330; 9722,824; 0,54565
 449,33; 2767,186;   -4,660; 9750,920; 0,54648
 449,91; 2722,278;   -4,010; 9665,083; 0,54981
 450,50; 2665,225;   -6,440; 9488,665; 0,55072
 451,08; 2609,183;   -3,900; 9331,735; 0,55299
 451,67; 2606,815;   -5,260; 9376,221; 0,55529
 452,26; 2534,366;   -5,310; 9159,071; 0,55732
 452,84; 2423,362;   -3,930; 8773,457; 0,55824
 453,43; 2355,776;   -5,990; 8538,944; 0,55847
 454,02; 2323,026;   -4,460; 8439,100; 0,55964
 454,60; 2377,505;   -4,810; 8688,011; 0,56216
 455,19; 2424,860;   -6,040; 8892,164; 0,56354
 455,77; 2308,680;   -3,230; 8524,410; 0,56686
 456,36; 2257,831;   -5,580; 8404,871; 0,57006
 456,95; 2326,441;   -5,360; 8658,528; 0,57002
 457,53; 2389,778;   -4,120; 8932,157; 0,57205
 458,12; 2388,638;   -6,540; 8951,649; 0,57288
 458,70; 2376,633;   -3,990; 8945,460; 0,57511
 459,29; 2409,538;   -5,710; 9112,577; 0,57695
 459,87; 2365,922;   -5,370; 8968,180; 0,57798
 460,46; 2333,370;   -3,600; 8895,566; 0,58070
 461,05; 2260,432;   -6,070; 8649,317; 0,58193
 461,63; 2025,411;   -4,610; 7809,000; 0,58535
 462,22; 1939,002;   -5,060; 7538,332; 0,58886
 462,80; 1985,765;   -6,440; 7745,665; 0,59009
 463,39; 2077,818;   -3,200; 8097,715; 0,59026
 463,97; 2124,672;   -5,900; 8310,430; 0,59144
 464,56; 2252,592;   -4,760; 8807,062; 0,59147
 465,14; 2338,702;   -4,420; 9188,097; 0,59364
 465,73; 2320,519;   -5,670; 9091,432; 0,59226
 466,31; 2028,414;   -3,630; 8042,904; 0,59768
 466,90; 1860,690;   -5,770; 7409,372; 0,59910
 467,49; 1803,239;   -5,800; 7204,753; 0,60052
 468,07; 1733,370;   -3,980; 6963,394; 0,60318
 468,66; 1630,966;   -5,400; 6607,558; 0,60652
 469,24; 1577,729;   -4,330; 6378,938; 0,60582
 469,83; 1523,407;   -5,140; 6205,382; 0,60885
 470,41; 1508,630;   -5,770; 6158,022; 0,60961
 471,00; 1493,463;   -3,670; 6130,148; 0,61247
 471,58; 1536,965;   -6,100; 6280,113; 0,61000
 472,17; 1569,538;   -4,590; 6423,255; 0,61103
 472,75; 1638,288;   -4,180; 6662,831; 0,60843
 473,34; 1658,611;   -5,980; 6793,041; 0,61114
 473,92; 1650,879;   -4,060; 6755,928; 0,61116
 474,51; 1734,153;   -5,160; 7067,660; 0,60921
 475,09; 1782,385;   -5,240; 7278,483; 0,61008
 475,68; 1677,583;   -3,540; 6891,100; 0,61291
 476,26; 1635,227;   -5,520; 6699,311; 0,61135
 476,85; 1573,170;   -3,950; 6447,914; 0,61182
 477,43; 1614,185;   -5,030; 6649,531; 0,61381
 478,01; 1668,242;   -6,250; 6812,952; 0,60985
 478,60; 1616,707;   -3,170; 6635,896; 0,61263
 479,18; 1660,925;   -5,510; 6772,455; 0,60931
 479,77; 1761,813;   -5,040; 7162,204; 0,60815
 480,35; 1746,416;   -3,630; 7053,768; 0,60560
 480,94; 1760,430;   -6,160; 7080,150; 0,60328
 481,52; 1807,350;   -4,180; 7262,842; 0,60331
 482,11; 1703,414;   -5,620; 6809,146; 0,60070
 482,69; 1648,108;   -4,720; 6550,067; 0,59833
 483,27; 1666,062;   -3,860; 6631,785; 0,59919
 483,86; 1795,619;   -6,040; 7087,498; 0,59519
 484,44; 2131,298;   -3,380; 8360,029; 0,59305
 485,03; 3969,518;   -5,020;15288,149; 0,58521
 485,61; 6660,079;   -5,960;24968,631; 0,57363
 486,20; 4262,222;   -3,510;16057,175; 0,57577
 486,78; 2512,452;   -6,020; 9629,067; 0,58272
 487,36; 1919,951;   -4,770; 7334,628; 0,58129
 487,95; 1632,975;   -4,670; 6232,081; 0,58074
 488,53; 1593,512;   -6,090; 6016,825; 0,57579
 489,12; 1547,073;   -3,810; 5810,158; 0,57389
 489,70; 1486,825;   -5,480; 5560,925; 0,57172
 490,28; 1482,747;   -4,990; 5522,516; 0,57000
 490,87; 1530,594;   -3,790; 5637,957; 0,56548
 491,45; 1528,478;   -6,390; 5595,715; 0,56228
 492,04; 1554,389;   -3,680; 5626,394; 0,55793
 492,62; 1550,293;   -5,780; 5585,316; 0,55547
 493,20; 1600,242;   -5,270; 5703,145; 0,55090
 493,79; 1613,596;   -3,610; 5741,246; 0,55051
 494,37; 1624,095;   -6,120; 5708,817; 0,54477
 494,95; 1561,078;   -4,680; 5464,241; 0,54318
 495,54; 1692,637;   -4,170; 5885,182; 0,54044
 496,12; 1865,720;   -6,130; 6360,208; 0,53162
 496,71; 1688,449;   -3,590; 5724,495; 0,52960
 497,29; 1511,129;   -6,170; 5172,638; 0,53316
 497,87; 1504,561;   -5,010; 5128,301; 0,53154
 498,46; 1554,766;   -4,650; 5298,868; 0,53160
 499,04; 1657,459;   -5,620; 5592,862; 0,52716
 499,62; 1662,870;   -3,650; 5611,974; 0,52759
 500,21; 1595,381;   -5,460; 5373,341; 0,52634
 500,79; 1692,336;   -5,720; 5643,960; 0,52207
 501,37; 1732,124;   -3,500; 5749,543; 0,52044
 501,96; 1760,776;   -6,130; 5817,576; 0,51799
 502,54; 1755,705;   -3,840; 5788,788; 0,51748
 503,12; 1778,125;   -4,580; 5816,801; 0,51395
 503,71; 1705,185;   -6,130; 5582,259; 0,51396
 504,29; 1693,238;   -3,750; 5491,367; 0,51030
 504,87; 1712,342;   -6,010; 5528,190; 0,50794
 505,45; 1736,973;   -4,850; 5502,178; 0,49991
 506,04; 1839,280;   -4,340; 5708,302; 0,49117
 506,62; 1769,010;   -6,030; 5386,961; 0,48262
 507,20; 1756,756;   -3,760; 5244,574; 0,47438
 507,79; 1831,028;   -5,510; 5369,913; 0,46641
 508,37; 1856,416;   -5,700; 5326,174; 0,45687
 508,95; 1773,204;   -3,770; 5049,915; 0,45393
 509,53; 1796,625;   -6,060; 5046,203; 0,44757
 510,12; 1813,854;   -4,730; 5024,046; 0,44173
 510,70; 1763,573;   -4,680; 4873,508; 0,44071
 511,28; 1726,395;   -5,710; 4718,683; 0,43577
 511,87; 1662,903;   -3,570; 4490,790; 0,43087
 512,45; 1688,732;   -6,290; 4530,000; 0,42753
 513,03; 1698,262;   -4,470; 4495,984; 0,42211
 513,61; 1663,848;   -4,690; 4375,445; 0,41915
 514,20; 1657,252;   -5,720; 4311,417; 0,41431
 514,78; 1592,837;   -3,130; 4111,385; 0,41129
 515,36; 1648,313;   -5,930; 4217,066; 0,40702
 515,94; 1745,969;   -5,150; 4385,615; 0,39922
 516,52; 1771,690;   -3,350; 4409,179; 0,39548
 517,11; 1718,243;   -6,220; 4239,278; 0,39127
 517,69; 1695,868;   -4,130; 4147,709; 0,38779
 518,27; 1745,638;   -5,060; 4220,633; 0,38269
 518,85; 1888,170;   -5,300; 4463,084; 0,37289
 519,44; 1806,205;   -3,590; 4248,145; 0,37094
 520,02; 1716,803;   -6,090; 4026,300; 0,36930
 520,60; 1767,703;   -4,760; 4100,162; 0,36473
 521,18; 1806,287;   -4,380; 4171,055; 0,36286
 521,76; 1828,842;   -6,620; 4173,796; 0,35747
 522,35; 1952,527;   -3,820; 4386,694; 0,35107
 522,93; 2043,904;   -5,570; 4543,369; 0,34627
 523,51; 2164,458;   -5,300; 4773,169; 0,34288
 524,09; 2242,008;   -4,400; 4887,883; 0,33802
 524,67; 2287,226;   -4,990; 4931,218; 0,33314
 525,26; 2397,180;   -3,790; 5107,008; 0,32810
 525,84; 2528,519;   -5,310; 5348,368; 0,32487
 526,42; 2683,589;   -5,590; 5628,632; 0,32121
 527,00; 2816,989;   -3,910; 5859,100; 0,31773
 527,58; 2938,848;   -6,580; 6070,653; 0,31456
 528,16; 3229,641;   -3,960; 6590,459; 0,30949
 528,75; 3427,788;   -5,040; 6940,611; 0,30606
 529,33; 3440,626;   -6,290; 6917,586; 0,30292
 529,91; 3455,468;   -3,800; 6886,341; 0,29924
 530,49; 3479,506;   -5,790; 6904,140; 0,29723
 531,07; 3523,408;   -5,190; 6911,573; 0,29230
 531,65; 3555,006;   -3,860; 6920,963; 0,28910
 532,23; 3579,545;   -6,030; 6917,777; 0,28579
 532,82; 3739,833;   -3,570; 7134,426; 0,28031
 533,40; 3746,352;   -5,800; 7118,523; 0,27846
 533,98; 3726,887;   -5,920; 7017,499; 0,27451
 534,56; 3690,386;   -3,710; 6898,400; 0,27147
 535,14; 3624,224;   -6,030; 6729,792; 0,26845
 535,72; 3490,888;   -4,460; 6466,747; 0,26749
 536,30; 3354,694;   -4,650; 6217,210; 0,26767
 536,88; 3425,949;   -6,430; 6294,924; 0,26384
 537,47; 3588,538;   -3,670; 6550,621; 0,26116
 538,05; 3719,664;   -5,660; 6731,663; 0,25732
 538,63; 3815,753;   -5,220; 6857,476; 0,25432
 539,21; 3883,363;   -4,790; 6927,632; 0,25114
 539,79; 3880,896;   -6,050; 6916,526; 0,25066
 540,37; 4018,071;   -3,920; 7113,964; 0,24791
 540,95; 4169,138;   -5,810; 7337,727; 0,24525
 541,53; 4207,046;   -5,310; 7382,070; 0,24397
 542,11; 4264,196;   -3,770; 7445,835; 0,24191
 542,69; 4308,948;   -6,070; 7493,707; 0,24007
 543,27; 4404,638;   -4,230; 7605,493; 0,23704
 543,85; 4485,083;   -5,460; 7728,060; 0,23608
 544,44; 4544,671;   -5,990; 7804,757; 0,23462
 545,02; 4519,417;   -3,320; 7723,588; 0,23260
 545,60; 4453,071;   -5,910; 7592,839; 0,23151
 546,18; 4550,774;   -5,010; 7720,313; 0,22935
 546,76; 4805,576;   -4,360; 8104,280; 0,22681
 547,34; 5199,316;   -5,570; 8709,552; 0,22386
 547,92; 5364,613;   -3,170; 8972,124; 0,22325
 548,50; 5268,293;   -5,510; 8813,599; 0,22330
 549,08; 5282,055;   -4,540; 8829,094; 0,22296
 549,66; 5484,415;   -3,960; 9145,781; 0,22197
 550,24; 5681,764;   -6,270; 9461,380; 0,22128
 550,82; 5893,156;   -2,870; 9760,832; 0,21906
 551,40; 6363,005;   -4,710;10486,111; 0,21683
 551,98; 6792,886;   -5,480;11126,422; 0,21416
 552,56; 6957,194;   -3,700;11357,747; 0,21277
 553,14; 7196,156;   -5,780;11716,380; 0,21156
 553,72; 7398,859;   -4,180;12026,348; 0,21087
 554,30; 7550,991;   -4,470;12261,251; 0,21043
 554,88; 7922,860;   -6,050;12824,110; 0,20902
 555,46; 8216,836;   -3,620;13236,162; 0,20698
 556,04; 8321,172;   -5,710;13377,909; 0,20609
 556,62; 8380,410;   -4,610;13465,874; 0,20588
 557,20; 8525,392;   -4,060;13696,825; 0,20583
 557,78; 8611,670;   -6,290;13851,380; 0,20629
 558,36; 8631,709;   -3,930;13898,575; 0,20680
 558,94; 8774,065;   -5,140;14076,833; 0,20521
 559,52; 9046,203;   -5,570;14462,143; 0,20367
 560,10; 9283,478;   -3,750;14833,805; 0,20348
 560,68; 9401,757;   -6,550;15019,484; 0,20333
 561,26; 9422,715;   -3,280;15002,221; 0,20192
 561,84; 9428,674;   -5,010;14977,782; 0,20091
 562,42; 9552,677;   -6,970;15196,171; 0,20149
 563,00; 9777,396;   -4,130;15540,979; 0,20119
 563,58;10035,443;   -5,780;15928,708; 0,20055
 564,15;10230,356;   -4,250;16233,088; 0,20044
 564,73;10416,557;   -3,950;16546,836; 0,20093
 565,31;10611,574;   -6,300;16825,971; 0,20011
 565,89;10890,100;   -4,240;17194,033; 0,19828
 566,47;11145,640;   -5,070;17586,744; 0,19801
 567,05;11555,976;   -5,100;18151,941; 0,19605
 567,63;11779,111;   -3,840;18449,000; 0,19481
 568,21;12161,986;   -6,050;19024,773; 0,19424
 568,79;12556,018;   -3,970;19679,480; 0,19511
 569,37;13164,463;   -5,350;20599,148; 0,19438
 569,95;13374,090;   -5,840;20943,539; 0,19472
 570,53;13727,419;   -2,920;21486,891; 0,19455
 571,10;13896,623;   -6,440;21784,078; 0,19516
 571,68;13992,744;   -4,660;21918,486; 0,19486
 572,26;13577,259;   -4,160;21307,967; 0,19568
 572,84;14263,614;   -6,090;22365,617; 0,19528
 573,42;14842,397;   -2,940;23251,182; 0,19491
 574,00;15307,550;   -5,200;23942,676; 0,19421
 574,58;15226,384;   -5,240;23854,818; 0,19493
 575,16;14716,696;   -4,460;23097,002; 0,19570
 575,73;14711,811;   -6,110;23134,146; 0,19652
 576,31;15469,398;   -3,880;24291,443; 0,19594
 576,89;16012,667;   -5,220;25155,701; 0,19612
 577,47;16992,891;   -5,400;26708,688; 0,19634
 578,05;16327,291;   -3,280;25697,223; 0,19694
 578,63;15464,469;   -5,710;24441,738; 0,19874
 579,21;15606,482;   -4,300;24677,947; 0,19896
 579,78;16015,871;   -4,560;25333,445; 0,19910
 580,36;16460,826;   -5,810;26010,873; 0,19865
 580,94;17943,705;   -3,880;28297,232; 0,19780
 581,52;18163,178;   -5,250;28577,984; 0,19679
 582,10;17271,584;   -4,400;27309,539; 0,19894
 582,67;16338,119;   -3,300;25993,527; 0,20163
 583,25;16009,588;   -6,310;25603,490; 0,20385
 583,83;16348,459;   -3,670;26202,158; 0,20482
 584,41;16972,266;   -5,110;27196,131; 0,20472
 584,99;17394,629;   -5,070;27903,443; 0,20519
 585,57;17093,547;   -4,030;27496,719; 0,20641
 586,14;16842,869;   -5,810;27188,916; 0,20792
 586,72;17238,043;   -4,430;27815,014; 0,20775
 587,30;17341,359;   -4,920;28099,254; 0,20956
 587,88;17262,707;   -5,390;28029,469; 0,21045
 588,45;17264,922;   -2,930;28061,545; 0,21092
 589,03;17299,141;   -5,630;28172,555; 0,21175
 589,61;17496,900;   -4,470;28531,996; 0,21233
 590,19;17614,732;   -3,730;28744,496; 0,21264
 590,77;17701,039;   -6,410;28954,313; 0,21365
 591,34;17899,777;   -3,690;29277,719; 0,21365
 591,92;18119,883;   -5,660;29683,326; 0,21430
 592,50;18536,678;   -4,990;30395,414; 0,21473
 593,08;18635,154;   -3,700;30588,914; 0,21520
 593,65;18594,293;   -5,710;30562,037; 0,21575
 594,23;18619,465;   -5,130;30663,879; 0,21661
 594,81;18757,123;   -5,280;30995,699; 0,21809
 595,39;18792,008;   -5,590;31158,361; 0,21955
 595,96;18845,115;   -3,720;31342,162; 0,22090
 596,54;18998,475;   -6,150;31633,639; 0,22137
 597,12;19166,430;   -4,520;31972,313; 0,22219
 597,69;19251,063;   -3,780;32181,184; 0,22311
 598,27;19419,201;   -5,850;32501,143; 0,22361
 598,85;19523,385;   -3,930;32759,922; 0,22475
 599,43;19484,871;   -5,570;32786,180; 0,22594
 600,00;19457,797;   -4,910;32812,848; 0,22691
 600,58;19430,713;   -3,050;32775,883; 0,22704
 601,16;19384,904;   -5,640;32735,307; 0,22750
 601,73;19379,254;   -3,700;32794,535; 0,22843
 602,31;19436,326;   -4,870;32978,516; 0,22957
 602,89;19493,047;   -5,340;33198,770; 0,23119
 603,46;19470,852;   -3,450;33308,418; 0,23314
 604,04;19484,881;   -6,130;33422,238; 0,23428
 604,62;19485,729;   -5,010;33480,102; 0,23502
 605,19;19567,594;   -4,380;33692,770; 0,23596
 605,77;19617,783;   -5,960;33833,906; 0,23665
 606,35;19588,744;   -3,200;33855,824; 0,23760
 606,92;19660,857;   -5,190;34020,773; 0,23809
 607,50;19638,771;   -4,930;34048,801; 0,23894
 608,08;19577,824;   -3,580;34102,246; 0,24098
 608,65;19595,953;   -5,840;34215,496; 0,24200
 609,23;19574,232;   -3,790;34260,172; 0,24307
 609,81;19603,195;   -5,470;34374,676; 0,24386
 610,38;19568,207;   -6,030;34343,320; 0,24423
 610,96;19506,725;   -3,890;34315,785; 0,24527
 611,54;19465,387;   -5,530;34322,281; 0,24626
 612,11;19434,148;   -4,580;34395,633; 0,24789
 612,69;19401,830;   -4,200;34416,422; 0,24888
 613,26;19400,313;   -5,830;34472,395; 0,24961
 613,84;19422,268;   -3,350;34495,352; 0,24943
 614,42;19394,316;   -5,820;34528,914; 0,25045
 614,99;19380,313;   -4,500;34576,863; 0,25138
 615,57;19321,471;   -4,300;34497,734; 0,25171
 616,14;19270,557;   -5,950;34509,168; 0,25298
 616,72;19277,076;   -4,670;34586,211; 0,25382
 617,30;19246,137;   -5,430;34590,121; 0,25455
 617,87;19146,223;   -4,960;34535,883; 0,25614
 618,45;19030,461;   -3,860;34474,418; 0,25801
 619,02;18976,613;   -6,170;34445,004; 0,25884
 619,60;18953,840;   -4,070;34518,656; 0,26031
 620,17;18936,191;   -5,150;34501,320; 0,26049
 620,75;18885,119;   -5,110;34419,809; 0,26064
 621,33;18953,033;   -3,100;34588,090; 0,26122
 621,90;18987,311;   -6,710;34711,746; 0,26194
 622,48;18981,023;   -4,300;34801,211; 0,26323
 623,05;19055,029;   -4,010;34941,113; 0,26329
 623,63;19116,088;   -5,830;35029,352; 0,26297
 624,20;19231,254;   -4,070;35188,293; 0,26235
 624,78;19248,100;   -4,970;35237,297; 0,26256
 625,35;19296,873;   -5,530;35360,055; 0,26297
 625,93;19334,127;   -4,250;35498,980; 0,26385
 626,50;19382,080;   -5,520;35656,457; 0,26468
 627,08;19484,684;   -3,260;35910,309; 0,26549
 627,66;19456,480;   -4,260;35958,215; 0,26669
 628,23;19520,725;   -5,980;36105,824; 0,26702
 628,81;19653,102;   -3,370;36447,125; 0,26820
 629,38;19718,881;   -5,690;36642,543; 0,26905
 629,96;19802,307;   -4,320;36918,520; 0,27048
 630,53;19931,785;   -3,840;37158,523; 0,27047
 631,11;20034,434;   -6,270;37325,750; 0,27017
 631,68;20117,807;   -3,050;37540,848; 0,27089
 632,26;20234,713;   -5,180;37719,535; 0,27042
 632,83;20349,631;   -5,010;37942,215; 0,27052
 633,40;20464,689;   -3,630;38242,207; 0,27150
 633,98;20610,814;   -5,490;38599,410; 0,27243
 634,55;20650,625;   -4,050;38718,586; 0,27295
 635,13;20701,590;   -4,550;38810,941; 0,27291
 635,70;20799,074;   -5,140;38995,316; 0,27292
 636,28;20836,395;   -3,900;39078,969; 0,27308
 636,85;20917,104;   -5,960;39229,449; 0,27305
 637,43;21025,139;   -4,390;39389,512; 0,27260
 638,00;21037,555;   -4,440;39453,230; 0,27304
 638,58;21093,182;   -5,310;39601,996; 0,27352
 639,15;21212,500;   -3,710;39846,707; 0,27377
 639,73;21288,561;   -5,560;39925,617; 0,27305
 640,30;21321,410;   -4,680;39917,324; 0,27230
 640,87;21454,326;   -3,900;40029,336; 0,27083
 641,45;21487,092;   -6,360;40028,277; 0,27013
 642,02;21483,756;   -3,940;40056,805; 0,27053
 642,60;21567,801;   -5,350;40194,398; 0,27031
 643,17;21664,316;   -5,260;40307,516; 0,26959
 643,74;21672,502;   -2,970;40326,047; 0,26965
 644,32;21768,268;   -6,380;40479,137; 0,26935
 644,89;21876,182;   -4,400;40605,938; 0,26858
 645,47;21887,398;   -4,410;40639,660; 0,26872
 646,04;21919,133;   -5,920;40687,828; 0,26859
 646,61;22020,199;   -3,570;40755,078; 0,26733
 647,19;22015,014;   -5,030;40599,512; 0,26576
 647,76;22041,529;   -4,670;40579,332; 0,26502
 648,34;22089,754;   -3,900;40591,699; 0,26421
 648,91;22124,250;   -6,330;40589,090; 0,26348
 649,48;22204,926;   -4,080;40648,980; 0,26256
 650,06;22327,340;   -5,350;40796,801; 0,26174
 650,63;22404,605;   -5,050;40888,523; 0,26122
 651,20;22511,201;   -3,110;41026,762; 0,26064
 651,78;22699,525;   -5,920;41332,332; 0,26022
 652,35;22799,531;   -4,290;41514,805; 0,26024
 652,92;22899,127;   -4,540;41672,805; 0,26000
 653,50;23093,172;   -5,950;41927,926; 0,25897
 654,07;23295,617;   -3,860;42147,516; 0,25747
 654,64;23761,342;   -5,690;42883,566; 0,25637
 655,22;26957,008;   -4,660;48380,445; 0,25396
 655,79;32637,053;   -4,180;57481,445; 0,24579
 656,36;27023,918;   -5,710;48023,246; 0,24966
 656,94;24703,314;   -3,570;44100,566; 0,25166
 657,51;24548,930;   -5,450;43680,840; 0,25022
 658,08;24684,385;   -5,360;43743,500; 0,24845
 658,66;24842,730;   -3,770;43862,430; 0,24686
 659,23;25011,004;   -5,690;44141,891; 0,24668
 659,80;25142,070;   -3,260;44188,832; 0,24489
 660,38;25127,086;   -4,320;44139,020; 0,24465
 660,95;25156,260;   -5,720;44226,852; 0,24500
 661,52;25232,217;   -3,480;44274,031; 0,24417
 662,09;25231,842;   -5,010;44259,773; 0,24402
 662,67;25378,807;   -4,740;44340,422; 0,24229
 663,24;25597,602;   -4,450;44537,742; 0,24050
 663,81;25747,287;   -5,730;44515,672; 0,23774
 664,39;25852,133;   -3,430;44495,855; 0,23580
 664,96;26053,479;   -5,760;44716,715; 0,23456
 665,53;26181,193;   -5,170;44768,996; 0,23295
 666,10;26189,738;   -4,520;44674,254; 0,23190
 666,68;26287,273;   -5,850;44708,137; 0,23060
 667,25;26454,760;   -3,890;44756,074; 0,22832
 667,82;26534,854;   -5,120;44622,676; 0,22570
 668,39;26675,629;   -6,140;44665,625; 0,22382
 668,96;26870,615;   -3,910;44817,188; 0,22214
 669,54;26992,020;   -5,740;44857,188; 0,22056
 670,11;27025,035;   -4,300;44851,027; 0,21998
 670,68;27142,871;   -4,040;44978,898; 0,21933
 671,25;27234,615;   -5,680;45027,570; 0,21832
 671,83;27241,951;   -3,700;44951,379; 0,21748
 672,40;27351,396;   -6,050;45027,770; 0,21646
 672,97;27538,162;   -4,980;45119,590; 0,21440
 673,54;27677,287;   -3,870;45134,422; 0,21236
 674,11;27740,293;   -5,690;45133,270; 0,21135
 674,69;27928,518;   -4,130;45320,051; 0,21022
 675,26;28152,813;   -5,570;45500,293; 0,20846
 675,83;28204,049;   -5,510;45411,813; 0,20683
 676,40;28367,564;   -3,390;45452,973; 0,20472
 676,97;28620,299;   -6,040;45556,195; 0,20184
 677,54;28792,234;   -4,460;45485,633; 0,19857
 678,12;28861,080;   -4,670;45433,043; 0,19703
 678,69;29019,945;   -5,690;45459,684; 0,19490
 679,26;29113,260;   -3,680;45420,477; 0,19314
 679,83;29161,076;   -5,630;45295,996; 0,19123
 680,40;29307,852;   -4,090;45411,625; 0,19016
 680,97;29559,525;   -3,900;45612,785; 0,18837
 681,55;29670,891;   -5,650;45621,266; 0,18681
 682,12;29748,746;   -3,530;45633,578; 0,18580
 682,69;29964,781;   -5,350;45801,469; 0,18424
 683,26;30194,438;   -5,020;45865,637; 0,18154
 683,83;30311,063;   -3,920;45802,180; 0,17927
 684,40;30519,668;   -6,070;45911,898; 0,17732
 684,97;30797,514;   -4,520;46167,578; 0,17580
 685,54;30922,238;   -4,570;46236,582; 0,17469
 686,12;30970,074;   -5,230;46305,129; 0,17466
 686,69;31179,350;   -3,440;46571,902; 0,17424
 687,26;31473,863;   -5,690;46806,141; 0,17233
 687,83;31672,100;   -4,980;46879,141; 0,17028
 688,40;31957,295;   -4,070;47133,574; 0,16874
 688,97;32370,039;   -5,350;47487,645; 0,16641
 689,54;32638,465;   -3,940;47596,625; 0,16383
 690,11;32742,400;   -5,540;47458,082; 0,16118
 690,68;32997,605;   -4,780;47650,805; 0,15957
 691,25;33327,531;   -3,900;47880,336; 0,15734
 691,82;33380,996;   -5,000;47800,523; 0,15591
 692,40;33335,102;   -3,790;47722,355; 0,15581
 692,97;33453,855;   -5,150;47900,047; 0,15587
 693,54;33558,523;   -5,920;47872,496; 0,15426
 694,11;33584,188;   -3,600;47675,688; 0,15215
 694,68;33634,363;   -5,920;47613,066; 0,15092
 695,25;33823,039;   -4,550;47738,578; 0,14964
 695,82;33934,723;   -3,950;47738,566; 0,14821
 696,39;33920,328;   -5,410;47622,098; 0,14733
 696,96;34141,254;   -3,520;47804,828; 0,14618
 697,53;34301,051;   -5,160;47840,258; 0,14447
 698,10;34303,734;   -4,410;47599,160; 0,14224
 698,67;34177,910;   -3,670;47339,031; 0,14146
 699,24;34207,637;   -5,920;47332,543; 0,14102
 699,81;34258,031;   -4,260;47332,941; 0,14039
 700,38;34243,195;   -4,830;47135,383; 0,13876
 700,95;34301,441;   -4,770;47031,121; 0,13706
 701,52;34526,418;   -3,350;47153,793; 0,13535
 702,09;34617,340;   -5,430;47086,254; 0,13358
 702,66;34583,285;   -4,560;46868,395; 0,13200
 703,23;34662,371;   -4,540;46835,855; 0,13071
 703,80;34879,848;   -5,600;47003,094; 0,12953
 704,37;35013,172;   -3,770;46934,246; 0,12725
 704,94;34975,137;   -4,640;46714,785; 0,12568
 705,51;35196,594;   -4,660;46834,707; 0,12405
 706,08;35471,141;   -3,890;47027,418; 0,12246
 706,65;35524,434;   -5,340;46983,688; 0,12140
 707,22;35464,391;   -3,770;46814,855; 0,12058
 707,79;35545,633;   -5,000;46843,020; 0,11984
 708,36;35684,699;   -5,500;46814,848; 0,11789
 708,93;35635,926;   -3,320;46555,680; 0,11608
 709,50;35504,301;   -5,550;46400,551; 0,11623
 710,06;35580,516;   -4,550;46454,629; 0,11580
 710,63;35641,441;   -4,940;46404,641; 0,11459
 711,20;35530,367;   -6,040;46133,922; 0,11340
 711,77;35536,500;   -3,300;46028,359; 0,11234
 712,34;35735,355;   -5,530;46157,543; 0,11113
 712,91;35920,184;   -5,280;46223,590; 0,10951
 713,48;35833,008;   -4,150;46040,344; 0,10884
 714,05;35807,293;   -6,210;45946,383; 0,10826
 714,62;35862,629;   -3,810;45941,934; 0,10756
 715,19;35792,555;   -5,870;45763,984; 0,10672
 715,76;35617,820;   -4,800;45460,945; 0,10596
 716,33;35649,055;   -2,940;45339,395; 0,10442
 716,89;35913,070;   -5,860;45517,727; 0,10291
 717,46;36094,035;   -4,190;45623,727; 0,10174
 718,03;36155,781;   -4,390;45532,895; 0,10014
 718,60;36219,746;   -5,760;45556,316; 0,09959
 719,17;36441,789;   -3,290;45736,457; 0,09865
 719,74;36556,047;   -6,180;45788,488; 0,09778
 720,31;36517,570;   -4,640;45755,008; 0,09793
 720,88;36575,426;   -4,510;45909,457; 0,09870
 721,44;36771,953;   -5,420;46075,820; 0,09794
 722,01;36843,059;   -3,650;46074,898; 0,09710
 722,58;36766,172;   -5,850;45835,910; 0,09574
 723,15;36790,727;   -4,670;45828,281; 0,09538
 723,72;37009,633;   -3,820;45895,820; 0,09345
 724,29;37021,707;   -5,360;45687,813; 0,09133
 724,85;36874,824;   -4,300;45373,133; 0,09006
 725,42;36903,980;   -5,210;45358,883; 0,08958
 725,99;37147,895;   -5,100;45587,723; 0,08890
 726,56;37233,070;   -3,500;45580,113; 0,08784
 727,13;37074,516;   -5,140;45374,465; 0,08773
 727,69;37159,168;   -4,350;45452,074; 0,08748
 728,26;37459,016;   -4,500;45789,125; 0,08720
 728,83;37635,492;   -5,020;45899,414; 0,08620
 729,40;37517,395;   -3,260;45771,945; 0,08636
 729,97;37559,750;   -5,790;45850,707; 0,08661
 730,53;37739,848;   -5,680;46055,844; 0,08647
 731,10;37851,613;   -3,540;46031,867; 0,08497
 731,67;37738,469;   -5,260;45791,215; 0,08399
 732,24;37706,961;   -3,410;45774,258; 0,08419
 732,81;37909,879;   -4,580;45929,227; 0,08333
 733,37;38074,004;   -5,060;45967,496; 0,08181
 733,94;38044,316;   -3,940;45848,379; 0,08103
 734,51;37910,941;   -5,920;45740,449; 0,08152
 735,08;37988,508;   -4,170;45907,969; 0,08223
 735,64;38180,363;   -4,530;46058,910; 0,08146
 736,21;38147,551;   -5,690;45877,379; 0,08012
 736,78;38134,543;   -3,280;45790,992; 0,07946
 737,35;38326,078;   -5,140;45971,563; 0,07899
 737,91;38426,164;   -4,230;46087,363; 0,07895
 738,48;38331,199;   -4,450;45900,543; 0,07826
 739,05;38222,227;   -6,230;45699,621; 0,07759
 739,61;38194,492;   -3,590;45634,422; 0,07729
 740,18;38288,297;   -5,260;45594,453; 0,07584
 740,75;38206,383;   -4,970;45401,574; 0,07493
 741,32;37954,508;   -3,640;45138,504; 0,07528
 741,88;37876,660;   -6,530;45080,773; 0,07561
 742,45;38006,855;   -3,510;45250,855; 0,07576
 743,02;37851,793;   -5,240;45092,625; 0,07601
 743,58;37606,777;   -5,670;44802,867; 0,07603
 744,15;37581,063;   -3,040;44768,258; 0,07600
 744,72;37719,660;   -5,180;44896,156; 0,07563
 745,28;37799,215;   -4,490;44913,598; 0,07489
 745,85;37696,059;   -4,260;44702,289; 0,07403
 746,42;37655,363;   -5,820;44664,777; 0,07413
 746,98;37806,898;   -3,790;44856,980; 0,07425
 747,55;38010,066;   -5,700;44945,008; 0,07277
 748,12;37925,609;   -5,140;44779,719; 0,07214
 748,68;37830,004;   -4,010;44602,660; 0,07152
 749,25;38044,063;   -5,420;44694,141; 0,06995
 749,82;38347,457;   -4,440;44775,230; 0,06729
 750,38;38344,160;   -4,570;44619,301; 0,06582
 750,95;38091,078;   -5,210;44306,852; 0,06564
 751,52;38013,531;   -3,200;44236,043; 0,06583
 752,08;38107,117;   -5,780;44387,211; 0,06624
 752,65;38223,824;   -4,170;44469,895; 0,06573
 753,21;38156,746;   -4,650;44382,012; 0,06563
 753,78;38079,375;   -5,490;44351,176; 0,06621
 754,35;38108,828;   -3,860;44531,703; 0,06764
 754,91;38212,895;   -5,160;44671,953; 0,06782
 755,48;38148,109;   -4,940;44465,207; 0,06654
 756,04;37971,324;   -3,660;44154,957; 0,06552
 756,61;38015,910;   -5,740;44184,016; 0,06529
 757,18;38162,023;   -4,330;44228,137; 0,06406
 757,74;38081,699;   -4,990;44087,266; 0,06359
 758,31;37754,984;   -5,250;43769,199; 0,06419
 758,87;37787,422;   -3,640;43821,047; 0,06433
 759,44;38107,355;   -5,410;44130,289; 0,06372
 760,00;38312,250;   -4,070;44345,367; 0,06350
 760,57;38255,176;   -4,350;44296,898; 0,06368
 761,14;37996,160;   -5,640;44114,281; 0,06483
 761,70;37938,855;   -3,330;44121,320; 0,06556
 762,27;38135,141;   -4,680;44206,660; 0,06416
 762,83;38229,289;   -4,460;44124,730; 0,06228
 763,40;38189,043;   -3,920;43988,461; 0,06139
 763,96;38298,328;   -5,670;43956,953; 0,05984
 764,53;38581,703;   -3,440;44197,031; 0,05901
 765,09;38585,188;   -4,980;44130,555; 0,05831
 765,66;38347,734;   -5,370;43879,383; 0,05851
 766,22;38223,398;   -3,060;43790,266; 0,05904
 766,79;38284,227;   -5,920;43907,934; 0,05951
 767,35;38519,590;   -4,120;44182,203; 0,05956
 767,92;38547,176;   -4,140;44205,844; 0,05948
 768,48;38410,992;   -5,420;44035,996; 0,05934
 769,05;38272,566;   -3,660;43900,367; 0,05958
 769,61;38347,621;   -5,160;44014,977; 0,05985
 770,18;38448,285;   -4,880;44139,117; 0,05994
 770,74;38409,184;   -3,450;44044,426; 0,05945
 771,31;38319,148;   -5,700;43893,746; 0,05898
 771,87;38347,953;   -3,460;43840,000; 0,05812
 772,44;38607,109;   -5,180;44027,699; 0,05705
 773,00;38663,145;   -5,030;44081,309; 0,05695
 773,57;38555,070;   -4,100;44065,469; 0,05801
 774,13;38493,594;   -5,930;44142,039; 0,05946
 774,70;38755,730;   -4,120;44456,410; 0,05959
 775,26;39023,875;   -5,020;44599,461; 0,05799
 775,82;39064,230;   -5,170;44573,531; 0,05729
 776,39;39000,754;   -3,410;44486,883; 0,05715
 776,95;38984,352;   -5,580;44468,563; 0,05716
 777,52;39132,996;   -4,200;44667,352; 0,05744
 778,08;39168,500;   -4,550;44735,473; 0,05771
 778,65;39045,145;   -6,170;44598,363; 0,05774
 779,21;38887,813;   -4,060;44484,133; 0,05839
 779,77;38853,816;   -5,060;44516,375; 0,05908
 780,34;38948,551;   -4,890;44630,207; 0,05913
 780,90;39046,148;   -3,480;44699,188; 0,05872
 781,47;38962,883;   -5,440;44571,746; 0,05840
 782,03;38998,816;   -3,870;44563,617; 0,05792
 782,59;39175,762;   -4,570;44800,168; 0,05826
 783,16;39300,609;   -4,880;45016,836; 0,05897
 783,72;39245,273;   -3,260;44945,738; 0,05890
 784,29;39062,250;   -6,200;44675,840; 0,05831
 784,85;39095,695;   -3,880;44653,668; 0,05772
 785,41;39286,359;   -4,130;44740,277; 0,05645
 785,98;39395,336;   -5,310;44764,238; 0,05548
 786,54;39299,410;   -2,940;44578,578; 0,05474
 787,10;39058,754;   -5,170;44323,820; 0,05491
 787,67;39047,781;   -4,910;44290,199; 0,05470
 788,23;39142,176;   -3,980;44349,832; 0,05424
 788,79;39140,422;   -5,230;44265,703; 0,05344
 789,36;38793,656;   -3,480;43886,523; 0,05357
 789,92;38556,012;   -4,830;43676,883; 0,05415
 790,48;38512,945;   -5,500;43623,191; 0,05410
 791,05;38677,742;   -3,370;43747,473; 0,05349
 791,61;38626,238;   -5,700;43669,813; 0,05329
 792,17;38382,914;   -4,190;43426,434; 0,05361
 792,74;38142,617;   -4,280;43219,727; 0,05427
 793,30;38176,633;   -4,960;43260,207; 0,05428
 793,86;38261,309;   -3,340;43349,984; 0,05422
 794,43;38035,676;   -5,150;43149,848; 0,05478
 794,99;37699,109;   -4,860;42774,457; 0,05485
 795,55;37377,676;   -3,540;42526,918; 0,05605
 796,11;37372,629;   -5,810;42541,336; 0,05625
 796,68;37458,867;   -4,230;42630,250; 0,05616
 797,24;37385,199;   -4,960;42463,820; 0,05531
 797,80;37109,414;   -5,120;42167,758; 0,05549
 798,36;36882,793;   -3,280;41928,348; 0,05568
 798,93;36869,836;   -5,680;41926,660; 0,05581
 799,49;36916,852;   -4,220;41898,332; 0,05497
 800,05;36801,148;   -4,460;41678,910; 0,05405
 800,61;36566,512;   -5,920;41344,340; 0,05332
 801,18;36506,648;   -3,960;41161,910; 0,05212
 801,74;36518,031;   -4,900;41097,961; 0,05131
 802,30;36566,297;   -4,050;41136,664; 0,05114
 802,86;36468,844;   -3,980;41034,453; 0,05122
 803,43;36257,059;   -5,930;40869,422; 0,05200
 803,99;36084,883;   -3,330;40734,094; 0,05263
 804,55;36156,180;   -5,380;40798,934; 0,05246
 805,11;36205,543;   -5,360;40848,375; 0,05239
 805,68;36158,969;   -3,550;40736,426; 0,05176
 806,24;35905,434;   -5,700;40446,074; 0,05171
 806,80;35665,332;   -3,730;40106,535; 0,05096
 807,36;35670,777;   -3,440;40095,328; 0,05078
 807,92;35826,781;   -5,730;40170,477; 0,04969
 808,48;35780,996;   -3,140;40069,469; 0,04916
 809,05;35569,852;   -5,310;39785,559; 0,04864
 809,61;35429,059;   -3,950;39699,688; 0,04942
 810,17;35431,793;   -4,230;39812,520; 0,05062
 810,73;35458,527;   -5,700;39931,848; 0,05159
 811,29;35379,352;   -3,160;39851,512; 0,05169
 811,85;35156,539;   -5,220;39582,238; 0,05149
 812,42;35049,582;   -5,160;39422,379; 0,05105
 812,98;35127,668;   -3,920;39445,262; 0,05034
 813,54;35324,793;   -5,040;39506,500; 0,04858
 814,10;35216,508;   -3,590;39297,953; 0,04762
 814,66;34998,523;   -4,920;39016,094; 0,04719
 815,22;34784,738;   -5,150;38785,145; 0,04727
 815,78;34875,746;   -3,660;38866,832; 0,04705
 816,35;35072,719;   -5,650;39099,172; 0,04719
 816,91;35174,824;   -3,960;39219,465; 0,04726
 817,47;35021,980;   -3,800;39017,246; 0,04691
 818,03;34838,875;   -5,810;38864,434; 0,04748
 818,59;34847,621;   -3,700;38902,367; 0,04780
 819,15;35038,695;   -4,980;39162,625; 0,04832
 819,71;35075,902;   -4,580;39317,535; 0,04957
 820,27;34965,848;   -3,780;39334,918; 0,05113
 820,83;34854,004;   -6,090;39355,266; 0,05274
 821,39;34784,688;   -3,280;39357,719; 0,05364
 821,96;34893,484;   -4,740;39515,398; 0,05402
 822,52;35070,957;   -5,520;39737,398; 0,05424
 823,08;35042,453;   -3,630;39659,750; 0,05375
 823,64;35032,121;   -5,070;39586,918; 0,05308
 824,20;35030,395;   -3,980;39539,969; 0,05259
 824,76;35336,590;   -3,870;39788,770; 0,05153
 825,32;35696,066;   -5,920;40101,641; 0,05053
 825,88;35811,090;   -3,830;40154,203; 0,04971
 826,44;35692,734;   -5,070;39967,152; 0,04912
 827,00;35599,270;   -4,300;39918,973; 0,04973
 827,56;35617,598;   -4,120;40039,984; 0,05082
 828,12;35760,793;   -5,180;40223,324; 0,05106
 828,68;35867,156;   -4,140;40379,715; 0,05146
 829,24;35858,262;   -4,610;40347,992; 0,05123
 829,80;35836,836;   -5,440;40203,746; 0,04993
 830,36;35949,352;   -3,170;40188,375; 0,04841
 830,92;36131,000;   -5,400;40347,816; 0,04793
 831,48;36358,324;   -3,950;40545,887; 0,04734
 832,04;36334,750;   -4,390;40492,305; 0,04704
 832,60;36211,383;   -4,860;40309,758; 0,04656
 833,16;36142,180;   -3,490;40230,418; 0,04654
 833,72;36204,164;   -5,200;40299,656; 0,04654
 834,28;36362,898;   -4,160;40492,430; 0,04671
 834,84;36286,613;   -3,630;40417,480; 0,04682
 835,40;36061,309;   -5,540;40135,059; 0,04648
 835,96;35939,688;   -3,510;40019,238; 0,04669
 836,52;35923,211;   -4,720;40061,859; 0,04735
 837,08;35987,207;   -4,720;40205,898; 0,04814
 837,64;35999,953;   -3,490;40301,680; 0,04902
 838,20;35830,898;   -5,290;40104,652; 0,04893
 838,76;35677,633;   -4,500;39905,102; 0,04863
 839,32;35621,906;   -5,060;39779,031; 0,04793
 839,88;35700,543;   -5,210;39771,383; 0,04689
 840,43;35793,297;   -3,610;39740,844; 0,04543
 840,99;35737,672;   -5,290;39626,063; 0,04485
 841,55;35555,750;   -4,480;39347,523; 0,04400
 842,11;35491,445;   -4,420;39191,496; 0,04306
 842,67;35527,879;   -5,270;39218,105; 0,04291
 843,23;35550,246;   -3,650;39320,445; 0,04377
 843,79;35591,121;   -4,810;39341,254; 0,04350
 844,35;35495,164;   -4,900;39278,816; 0,04398
 844,91;35183,582;   -3,580;39062,207; 0,04541
 845,47;34937,035;   -5,250;38957,047; 0,04729
 846,03;34876,410;   -4,140;38961,719; 0,04810
 846,58;34877,156;   -4,660;39000,188; 0,04852
 847,14;34847,832;   -4,560;39026,188; 0,04917
 847,70;34681,496;   -3,210;38835,418; 0,04913
 848,26;34356,332;   -5,000;38582,188; 0,05037
 848,82;34252,418;   -5,020;38469,699; 0,05042
 849,38;34257,992;   -4,500;38485,500; 0,05053
 849,94;34306,547;   -4,760;38542,871; 0,05056
 850,49;34226,285;   -3,730;38438,402; 0,05040
 851,05;34074,180;   -4,810;38312,992; 0,05091
 851,61;33949,652;   -4,440;38229,242; 0,05155
 852,17;33984,680;   -3,770;38265,051; 0,05151
 852,73;34106,656;   -6,090;38339,094; 0,05079
 853,29;34115,441;   -3,900;38308,184; 0,05034
 853,84;33880,227;   -4,520;37993,375; 0,04976
 854,40;33776,809;   -5,860;37825,195; 0,04915
 854,96;33635,164;   -3,690;37627,086; 0,04870
 855,52;33686,980;   -5,530;37632,684; 0,04810
 856,08;33745,578;   -4,340;37691,367; 0,04802
 856,63;33663,980;   -3,890;37644,336; 0,04853
 857,19;33452,926;   -5,380;37437,445; 0,04886
 857,75;33302,371;   -3,930;37311,445; 0,04936
 858,31;33247,438;   -5,870;37257,355; 0,04945
 858,86;33466,801;   -4,900;37392,969; 0,04817
 859,42;33645,148;   -4,020;37517,957; 0,04731
 859,98;33721,492;   -5,290;37560,219; 0,04681
 860,54;33608,020;   -3,500;37388,629; 0,04629
 861,10;33503,895;   -5,030;37205,480; 0,04551
 861,65;33593,551;   -4,690;37297,141; 0,04541
 862,21;33715,664;   -3,770;37438,699; 0,04548
 862,77;33803,590;   -5,290;37539,180; 0,04552
 863,32;33840,824;   -3,500;37565,043; 0,04534
 863,88;33701,480;   -4,660;37413,980; 0,04538
 864,44;33607,477;   -5,600;37325,723; 0,04557
 865,00;33651,492;   -3,600;37377,582; 0,04560
 865,55;33823,688;   -5,260;37511,664; 0,04494
 866,11;34025,742;   -4,360;37630,723; 0,04373
 866,67;34057,195;   -3,730;37557,676; 0,04249
 867,23;33969,293;   -5,370;37425,043; 0,04207
 867,78;33975,328;   -3,500;37461,285; 0,04241
 868,34;34055,352;   -5,190;37518,074; 0,04205
 868,90;34253,168;   -4,920;37732,496; 0,04201
 869,45;34468,875;   -3,830;37920,727; 0,04145
 870,01;34495,367;   -5,620;37882,887; 0,04068
 870,57;34528,734;   -3,910;37964,188; 0,04119
 871,12;34623,570;   -4,430;38100,566; 0,04155
 871,68;34706,676;   -5,550;38191,199; 0,04154
 872,24;34862,809;   -3,120;38387,590; 0,04182
 872,79;34995,844;   -5,780;38563,930; 0,04216
 873,35;34867,531;   -4,310;38412,648; 0,04205
 873,91;34609,266;   -3,630;38139,160; 0,04217
 874,46;34351,852;   -5,440;37898,980; 0,04267
 875,02;34190,395;   -3,720;37772,883; 0,04327
 875,57;34131,891;   -5,240;37765,813; 0,04393
 876,13;34001,465;   -4,400;37676,113; 0,04456
 876,69;33805,523;   -3,450;37458,641; 0,04456
 877,24;33406,516;   -5,590;37076,113; 0,04526
 877,80;33221,113;   -3,560;36898,262; 0,04559
 878,36;33138,969;   -4,460;36903,992; 0,04673
 878,91;33159,043;   -4,830;36912,063; 0,04656
 879,47;33077,410;   -3,540;36785,473; 0,04614
 880,02;32870,473;   -4,840;36550,945; 0,04609
 880,58;32510,770;   -4,360;36186,066; 0,04651
 881,14;32259,475;   -3,990;35904,516; 0,04649
 881,69;32125,049;   -5,340;35774,566; 0,04672
 882,25;32037,395;   -3,410;35657,816; 0,04649
 882,80;31926,641;   -5,260;35514,438; 0,04624
 883,36;31785,865;   -3,870;35330,168; 0,04591
 883,91;31586,941;   -3,580;35049,328; 0,04517
 884,47;31435,826;   -4,910;34803,668; 0,04419
 885,03;31347,701;   -3,340;34675,348; 0,04381
 885,58;31406,576;   -5,310;34675,070; 0,04299
 886,14;31425,701;   -4,740;34577,711; 0,04151
 886,69;31335,758;   -3,850;34409,699; 0,04064
 887,25;31144,342;   -5,470;34137,680; 0,03985
 887,80;30953,838;   -4,120;33860,859; 0,03898
 888,36;30932,684;   -4,750;33808,641; 0,03860
 888,91;30788,699;   -5,170;33690,383; 0,03911
 889,47;30716,623;   -3,200;33620,031; 0,03922
 890,02;30610,969;   -5,640;33567,313; 0,04003
 890,58;30398,674;   -4,240;33402,695; 0,04092
 891,13;30137,939;   -3,160;33186,145; 0,04184
 891,69;30034,875;   -5,110;33174,426; 0,04317
 892,24;29986,869;   -3,690;33153,855; 0,04360
 892,80;30021,064;   -5,120;33200,156; 0,04371
 893,35;29932,352;   -5,290;33164,344; 0,04452
 893,91;29780,676;   -3,520;33054,824; 0,04530
 894,46;29610,121;   -5,030;32933,797; 0,04619
 895,02;29527,197;   -3,950;32832,738; 0,04608
 895,57;29493,932;   -4,330;32823,566; 0,04645
 896,13;29562,838;   -5,740;32861,488; 0,04593
 896,68;29488,033;   -3,820;32793,547; 0,04614
 897,23;29303,857;   -5,840;32591,918; 0,04618
 897,79;29146,863;   -4,050;32386,529; 0,04577
 898,34;28957,777;   -4,180;32147,580; 0,04538
 898,90;28998,504;   -5,230;32105,189; 0,04419
 899,45;29128,719;   -3,220;32118,701; 0,04243
 900,01;29201,494;   -4,070;32043,740; 0,04033
 900,56;29143,479;   -4,550;31903,352; 0,03929
 901,11;28948,285;   -3,520;31645,053; 0,03868
 901,67;28779,590;   -5,480;31447,682; 0,03850
 902,22;28735,256;   -3,470;31408,373; 0,03863
 902,78;28700,410;   -4,690;31311,713; 0,03781
 903,33;28660,496;   -5,200;31256,184; 0,03765
 903,89;28583,820;   -3,490;31181,545; 0,03777
 904,44;28448,027;   -4,980;31056,584; 0,03810
 904,99;28238,701;   -3,870;30865,195; 0,03862
 905,55;28004,758;   -4,260;30702,016; 0,03993
 906,10;27939,783;   -5,150;30697,977; 0,04088
 906,65;27902,268;   -3,500;30723,355; 0,04182
 907,21;27883,652;   -5,640;30675,477; 0,04143
 907,76;27733,357;   -4,940;30489,727; 0,04114
 908,31;27566,174;   -4,010;30303,568; 0,04111
 908,87;27353,088;   -5,560;30083,078; 0,04131
 909,42;27172,523;   -3,690;29956,818; 0,04236
 909,97;27063,260;   -4,590;29847,719; 0,04252
 910,53;27055,645;   -5,450;29832,689; 0,04243
 911,08;26951,131;   -3,120;29674,891; 0,04181
 911,63;26813,160;   -5,460;29478,949; 0,04116
 912,19;26589,490;   -4,610;29235,730; 0,04120
 912,74;26497,311;   -4,370;29132,980; 0,04118
 913,29;26472,260;   -5,380;29151,539; 0,04186
 913,85;26470,500;   -3,150;29154,760; 0,04194
 914,40;26490,340;   -5,630;29117,500; 0,04106
 914,95;26310,891;   -4,600;28891,000; 0,04062
 915,51;26131,490;   -3,470;28662,641; 0,04015
 916,06;25888,260;   -5,380;28396,311; 0,04015
 916,61;25754,680;   -3,800;28277,020; 0,04057
 917,16;25713,119;   -4,420;28221,119; 0,04041
 917,72;25694,721;   -4,280;28192,570; 0,04028
 918,27;25610,439;   -3,770;28136,170; 0,04084
 918,82;25324,510;   -5,260;27884,811; 0,04182
 919,37;25088,779;   -4,230;27632,869; 0,04194
 919,93;24886,131;   -4,430;27467,510; 0,04285
 920,48;24705,850;   -4,690;27256,490; 0,04266
 921,03;24700,600;   -3,350;27184,070; 0,04160
 921,58;24682,301;   -4,890;27049,170; 0,03976
 922,14;24557,359;   -3,800;26874,881; 0,03916
 922,69;24408,119;   -4,510;26667,590; 0,03844
 923,24;24215,381;   -5,930;26432,930; 0,03805
 923,79;24061,439;   -3,250;26232,420; 0,03751
 924,35;23917,789;   -4,600;26095,189; 0,03783
 924,90;23864,240;   -5,000;26061,240; 0,03824
 925,45;23744,711;   -4,370;25914,320; 0,03797
 926,00;23616,480;   -5,170;25791,840; 0,03826
 926,55;23437,949;   -3,140;25635,270; 0,03891
 927,11;23253,051;   -5,260;25463,740; 0,03943
 927,66;23117,430;   -5,350;25344,430; 0,03993
 928,21;22999,551;   -3,240;25245,631; 0,04046
 928,76;23024,391;   -5,430;25222,779; 0,03960
 929,31;22906,971;   -4,110;25074,619; 0,03926
 929,86;22684,510;   -3,740;24869,080; 0,03992
 930,42;22460,660;   -5,260;24682,619; 0,04096
 930,97;22236,990;   -3,500;24485,660; 0,04183
 931,52;22078,711;   -5,130;24364,430; 0,04277
 932,07;21981,580;   -4,920;24298,561; 0,04351
 932,62;21923,230;   -3,530;24238,150; 0,04359
 933,17;21767,980;   -5,470;24069,711; 0,04364
 933,72;21584,430;   -3,710;23829,721; 0,04297
 934,28;21339,211;   -4,350;23504,830; 0,04197
 934,83;21185,141;   -4,850;23271,850; 0,04079
 935,38;21048,029;   -3,630;23059,400; 0,03963
 935,93;20959,150;   -5,900;22910,961; 0,03866
 936,48;20890,570;   -4,150;22831,711; 0,03858
 937,03;20737,199;   -3,990;22647,340; 0,03826
 937,58;20528,051;   -5,060;22452,080; 0,03890
 938,13;20338,320;   -3,550;22234,980; 0,03872
 938,68;20132,029;   -5,130;22028,891; 0,03910
 939,23;19974,150;   -4,460;21864,000; 0,03925
 939,79;19804,660;   -3,330;21692,939; 0,03954
 940,34;19674,330;   -5,650;21554,381; 0,03962
 940,89;19507,760;   -3,850;21387,740; 0,03995
 941,44;19321,779;   -4,660;21172,801; 0,03972
 941,99;19064,850;   -4,190;20896,779; 0,03984
 942,54;18814,430;   -3,330;20629,840; 0,04000
 943,09;18702,910;   -5,940;20532,359; 0,04052
 943,64;18616,480;   -3,920;20453,461; 0,04086
 944,19;18517,430;   -4,420;20324,930; 0,04044
 944,74;18374,211;   -5,410;20200,211; 0,04114
 945,29;18179,551;   -3,300;19950,891; 0,04037
 945,84;17966,461;   -5,250;19724,529; 0,04053
 946,39;17764,551;   -4,220;19497,350; 0,04041
 946,94;17567,301;   -4,110;19280,949; 0,04041
 947,49;17430,471;   -4,990;19122,920; 0,04023
 948,04;17316,980;   -3,660;18994,311; 0,04014
 948,59;17198,641;   -4,600;18849,660; 0,03980
 949,14;16965,930;   -5,110;18609,561; 0,04015
 949,69;16677,250;   -3,410;18289,891; 0,04008
 950,24;16419,510;   -5,330;17998,600; 0,03987
 950,79;16225,940;   -4,110;17811,250; 0,04047
 951,34;16060,370;   -3,770;17632,689; 0,04055
 951,89;15881,990;   -4,810;17426,699; 0,04030
 952,44;15694,730;   -3,130;17243,070; 0,04085
 952,99;15479,720;   -4,910;16979,750; 0,04016
 953,54;15218,950;   -4,030;16676,180; 0,03970
 954,09;15010,560;   -4,180;16453,539; 0,03985
 954,64;14796,430;   -5,140;16195,940; 0,03924
 955,19;14612,560;   -3,650;15987,240; 0,03904
 955,74;14455,130;   -4,850;15817,480; 0,03910
 956,28;14285,860;   -4,560;15617,660; 0,03870
 956,83;14180,470;   -3,710;15446,820; 0,03714
 957,38;14004,020;   -5,200;15209,100; 0,03584
 957,93;13864,660;   -3,820;14997,950; 0,03411
 958,48;13734,700;   -4,430;14849,880; 0,03389
 959,03;13671,210;   -4,780;14744,990; 0,03283
 959,58;13582,680;   -3,180;14642,730; 0,03263
 960,13;13472,320;   -5,350;14548,390; 0,03336
 960,68;13388,310;   -4,940;14464,620; 0,03357
 961,23;13276,290;   -3,510;14363,030; 0,03416
 961,77;13093,150;   -5,220;14190,360; 0,03494
 962,32;12968,660;   -3,040;14067,810; 0,03532
 962,87;12871,730;   -5,280;13983,460; 0,03596
 963,42;12801,280;   -4,860;13890,120; 0,03544
 963,97;12741,750;   -4,090;13842,440; 0,03597
 964,52;12657,700;   -4,670;13724,500; 0,03513
 965,07;12530,630;   -3,960;13567,440; 0,03451
 965,61;12401,390;   -4,650;13392,610; 0,03338
 966,16;12249,540;   -4,950;13227,620; 0,03335
 966,71;12152,890;   -3,910;13110,390; 0,03293
 967,26;12078,890;   -4,850;13023,620; 0,03269
 967,81;12016,090;   -4,230;12942,980; 0,03226
 968,36;11949,610;   -3,900;12880,030; 0,03255
 968,90;11844,620;   -5,140;12777,240; 0,03290
 969,45;11712,210;   -3,460;12667,520; 0,03404
 970,00;11574,910;   -4,850;12522,860; 0,03417
 970,55;11469,420;   -3,820;12417,320; 0,03448
 971,10;11390,780;   -3,860;12332,360; 0,03448
 971,64;11351,540;   -5,140;12261,840; 0,03349
 972,19;11307,770;   -3,070;12214,630; 0,03349
 972,74;11262,490;   -4,300;12146,100; 0,03279
 973,29;11167,450;   -4,810;12021,430; 0,03199
 973,84;11067,560;   -3,510;11899,000; 0,03145
 974,38;10979,550;   -5,820;11793,900; 0,03106
 974,93;10924,350;   -3,260;11744,610; 0,03143
 975,48;10885,780;   -4,730;11718,880; 0,03201
 976,03;10834,480;   -5,100;11673,800; 0,03239
 976,57;10733,700;   -3,100;11595,260; 0,03352
 977,12;10609,150;   -4,670;11488,590; 0,03457
 977,67;10478,190;   -4,490;11353,870; 0,03484
 978,21;10315,090;   -3,760;11217,590; 0,03641
 978,76;10173,010;   -5,280;11065,790; 0,03651
 979,31;10085,250;   -3,770;10967,360; 0,03640
 979,86;10032,180;   -4,720;10889,020; 0,03558
 980,40;10009,510;   -4,690;10847,000; 0,03488
 980,95; 9952,530;   -3,390;10752,260; 0,03356
 981,50; 9903,140;   -5,510;10682,940; 0,03290
 982,04; 9842,920;   -4,170;10570,410; 0,03096
 982,59; 9765,460;   -4,420;10467,490; 0,03014
 983,14; 9684,130;   -5,530;10392,160; 0,03063
 983,68; 9644,590;   -3,710;10331,540; 0,02987
 984,23; 9614,390;   -5,190;10320,460; 0,03076
 984,78; 9602,100;   -3,950;10291,430; 0,03010
 985,32; 9530,420;   -4,270;10257,410; 0,03191
 985,87; 9459,240;   -5,350;10183,030; 0,03200
 986,42; 9345,190;   -3,610;10086,660; 0,03315
 986,96; 9243,090;   -4,760;10004,890; 0,03438
 987,51; 9191,560;   -5,000; 9953,120; 0,03455
 988,06; 9114,650;   -3,310; 9892,210; 0,03554
 988,60; 9074,840;   -5,330; 9840,210; 0,03515
 989,15; 9056,980;   -3,350; 9793,030; 0,03392
 989,70; 9030,570;   -4,480; 9740,670; 0,03286
 990,24; 8969,980;   -5,060; 9627,540; 0,03071
 990,79; 8825,240;   -3,110; 9486,010; 0,03135
 991,33; 8719,960;   -5,400; 9374,400; 0,03141
 991,88; 8664,250;   -4,320; 9319,590; 0,03165
 992,43; 8633,620;   -3,960; 9280,250; 0,03135
 992,97; 8596,050;   -5,420; 9270,820; 0,03280
 993,52; 8529,870;   -4,060; 9191,160; 0,03241
 994,06; 8472,650;   -5,210; 9135,100; 0,03267
 994,61; 8389,650;   -4,760; 9045,400; 0,03267
 995,16; 8290,390;   -3,520; 8950,450; 0,03326
 995,70; 8199,420;   -5,300; 8870,860; 0,03416
 996,25; 8161,460;   -3,750; 8824,520; 0,03391
 996,79; 8132,470;   -4,910; 8777,840; 0,03315
 997,34; 8107,890;   -4,460; 8744,230; 0,03280
 997,88; 8093,190;   -3,110; 8717,710; 0,03227
 998,43; 8036,280;   -5,440; 8653,090; 0,03210
 998,97; 7955,020;   -4,340; 8569,720; 0,03231
 999,52; 7882,430;   -4,590; 8475,470; 0,03149
1000,06; 7804,750;   -5,130; 8404,610; 0,03214
1000,61; 7773,980;   -3,190; 8358,030; 0,03145
1001,15; 7762,300;   -4,980; 8319,200; 0,03007
1001,70; 7733,660;   -4,130; 8267,130; 0,02895
1002,24; 7685,940;   -3,920; 8215,400; 0,02892
1002,79; 7617,690;   -5,420; 8150,270; 0,02933
1003,33; 7542,920;   -3,450; 8050,700; 0,02828
1003,88; 7464,250;   -4,630; 7990,260; 0,02956
1004,42; 7403,590;   -4,800; 7921,750; 0,02936
1004,97; 7334,660;   -2,630; 7869,300; 0,03055
1005,51; 7287,170;   -5,130; 7843,280; 0,03192
1006,06; 7259,730;   -3,930; 7799,300; 0,03112
1006,60; 7221,850;   -3,920; 7761,140; 0,03126
1007,15; 7181,770;   -5,390; 7722,720; 0,03152
1007,69; 7124,900;   -3,270; 7664,210; 0,03167
1008,24; 7055,980;   -4,840; 7586,050; 0,03144
1008,78; 7004,390;   -4,560; 7525,700; 0,03116
1009,33; 6940,150;   -3,350; 7473,960; 0,03217
1009,87; 6895,650;   -5,070; 7442,640; 0,03313
1010,41; 6861,160;   -3,760; 7405,550; 0,03314
1010,96; 6816,650;   -3,800; 7358,870; 0,03322
1011,50; 6758,400;   -5,170; 7292,360; 0,03300
1012,05; 6688,690;   -3,520; 7232,520; 0,03393
1012,59; 6618,120;   -5,750; 7156,520; 0,03394
1013,13; 6552,480;   -4,440; 7074,010; 0,03324
1013,68; 6510,400;   -4,210; 7041,860; 0,03406
1014,22; 6468,900;   -5,240; 7003,540; 0,03446
1014,77; 6439,260;   -3,670; 6980,330; 0,03502
1015,31; 6431,050;   -5,510; 6952,050; 0,03380
1015,85; 6401,930;   -4,130; 6908,480; 0,03305
1016,40; 6352,980;   -3,990; 6853,990; 0,03295
1016,94; 6299,810;   -6,210; 6785,010; 0,03219
1017,48; 6243,130;   -3,310; 6711,130; 0,03138
1018,03; 6210,940;   -4,670; 6663,110; 0,03050
1018,57; 6159,310;   -4,670; 6631,410; 0,03205
1019,11; 6109,580;   -3,600; 6594,880; 0,03318
1019,66; 6075,500;   -4,220; 6562,990; 0,03350
1020,20; 6027,890;   -4,140; 6505,000; 0,03306
1020,74; 5949,570;   -4,470; 6428,810; 0,03362
1021,29; 5893,110;   -5,710; 6378,230; 0,03432
1021,83; 5815,230;   -2,870; 6289,420; 0,03403
1022,37; 5759,010;   -5,300; 6230,650; 0,03416
1022,92; 5714,270;   -4,390; 6183,670; 0,03426
1023,46; 5673,990;   -4,270; 6133,960; 0,03383
1024,00; 5634,290;   -4,410; 6096,960; 0,03425
1024,55; 5579,000;   -3,190; 6043,580; 0,03472
1025,09; 5545,990;   -4,720; 5990,610; 0,03346
1025,63; 5492,280;   -4,370; 5944,890; 0,03436
1026,17; 5432,360;   -3,870; 5881,180; 0,03445
1026,72; 5393,880;   -5,650; 5827,610; 0,03356
1027,26; 5355,490;   -3,150; 5804,100; 0,03492
1027,80; 5312,290;   -4,250; 5769,660; 0,03584
1028,35; 5280,140;   -5,910; 5749,860; 0,03697
1028,89; 5250,400;   -3,070; 5709,350; 0,03637
1029,43; 5225,040;   -5,270; 5695,810; 0,03743
1029,97; 5183,980;   -3,760; 5647,160; 0,03714
1030,52; 5141,100;   -3,440; 5598,140; 0,03696
1031,06; 5092,120;   -5,740; 5552,600; 0,03756
1031,60; 5038,020;   -3,410; 5489,250; 0,03723
1032,14; 4989,320;   -5,620; 5433,350; 0,03699
1032,68; 4950,710;   -4,340; 5376,620; 0,03581
1033,23; 4902,830;   -3,820; 5321,210; 0,03554
1033,77; 4855,140;   -5,020; 5257,110; 0,03451
1034,31; 4782,730;   -3,230; 5185,000; 0,03505
1034,85; 4706,860;   -5,310; 5093,910; 0,03428
1035,39; 4626,510;   -4,680; 5007,470; 0,03433
1035,94; 4569,370;   -3,420; 4944,010; 0,03420
1036,48; 4508,560;   -5,080; 4884,790; 0,03477
1037,02; 4441,330;   -4,040; 4827,050; 0,03614
1037,56; 4400,220;   -4,120; 4773,730; 0,03535
1038,10; 4338,140;   -4,950; 4704,730; 0,03519
1038,64; 4276,940;   -3,760; 4642,620; 0,03560
1039,19; 4217,060;   -5,020; 4575,210; 0,03536
1039,73; 4153,790;   -4,620; 4506,960; 0,03540
1040,27; 4089,180;   -3,310; 4428,480; 0,03459
1040,81; 4031,920;   -5,380; 4363,000; 0,03423
1041,35; 3981,880;   -3,370; 4312,790; 0,03464
1041,89; 3942,620;   -4,550; 4272,330; 0,03484
1042,43; 3906,960;   -4,720; 4219,720; 0,03341
1042,97; 3864,050;   -3,290; 4173,360; 0,03342
1043,52; 3816,110;   -5,480; 4117,470; 0,03296
1044,06; 3773,020;   -3,690; 4065,870; 0,03243
1044,60; 3723,380;   -4,450; 4013,950; 0,03260
1045,14; 3667,870;   -5,010; 3956,120; 0,03281
1045,68; 3624,400;   -2,800; 3904,060; 0,03226
1046,22; 3591,920;   -5,100; 3862,830; 0,03154
1046,76; 3557,510;   -3,820; 3824,980; 0,03145
1047,30; 3508,430;   -3,570; 3772,920; 0,03153
1047,84; 3470,580;   -5,010; 3720,120; 0,03011
1048,38; 3424,360;   -3,270; 3661,490; 0,02905
1048,92; 3371,740;   -5,160; 3607,330; 0,02929
1049,46; 3311,650;   -4,720; 3550,920; 0,03025
1050,00; 3262,810;   -3,140; 3492,570; 0,02953
1050,55; 3209,090;   -5,370; 3446,580; 0,03096
1051,09; 3159,910;   -3,310; 3398,710; 0,03161
1051,63; 3115,870;   -4,710; 3353,080; 0,03182
1052,17; 3073,810;   -5,550; 3301,770; 0,03102
1052,71; 3025,310;   -4,090; 3260,090; 0,03242
1053,25; 2979,780;   -5,200; 3202,430; 0,03124
1053,79; 2930,570;   -4,050; 3155,960; 0,03214
1054,33; 2871,500;   -3,970; 3104,430; 0,03383
1054,87; 2825,830;   -5,240; 3048,030; 0,03281
1055,41; 2780,320;   -4,020; 3003,960; 0,03355
1055,95; 2729,860;   -5,460; 2955,430; 0,03441
1056,49; 2693,060;   -4,740; 2919,770; 0,03504
1057,03; 2650,930;   -3,520; 2873,700; 0,03500
1057,57; 2616,010;   -5,110; 2830,980; 0,03423
1058,11; 2574,620;   -3,520; 2795,590; 0,03571
1058,64; 2539,860;   -4,270; 2750,490; 0,03454
1059,18; 2501,690;   -4,410; 2707,740; 0,03432
1059,72; 2461,130;   -3,520; 2662,700; 0,03414
1060,26; 2431,130;   -4,420; 2629,650; 0,03403
1060,80; 2405,980;   -3,530; 2596,490; 0,03305
1061,34; 2374,060;   -3,880; 2570,350; 0,03445
1061,88; 2345,420;   -4,780; 2542,330; 0,03494
1062,42; 2320,340;   -3,200; 2518,280; 0,03551
1062,96; 2288,440;   -4,650; 2480,700; 0,03497
1063,50; 2251,500;   -4,430; 2442,220; 0,03525
1064,04; 2219,080;   -4,030; 2411,890; 0,03612
1064,58; 2187,810;   -5,140; 2377,010; 0,03594
1065,12; 2155,730;   -4,070; 2345,980; 0,03666
1065,65; 2129,830;   -3,870; 2318,390; 0,03678
1066,19; 2104,870;   -4,640; 2287,020; 0,03597
1066,73; 2079,360;   -3,470; 2262,420; 0,03658
1067,27; 2056,990;   -5,070; 2237,110; 0,03637
1067,81; 2030,020;   -3,610; 2202,760; 0,03541
1068,35; 2003,200;   -4,470; 2173,630; 0,03539
1068,89; 1979,580;   -5,130; 2139,170; 0,03359
1069,43; 1943,290;   -3,430; 2101,790; 0,03399
1069,96; 1918,420;   -5,240; 2072,340; 0,03343
1070,50; 1899,240;   -4,130; 2055,170; 0,03420
1071,04; 1876,950;   -3,710; 2029,060; 0,03378
1071,58; 1851,780;   -5,600; 2010,100; 0,03553
1072,12; 1827,460;   -3,290; 1984,880; 0,03582
1072,66; 1803,370;   -4,020; 1966,980; 0,03763
1073,19; 1782,420;   -4,710; 1943,830; 0,03755
1073,73; 1749,620;   -3,330; 1916,080; 0,03940
1074,27; 1719,950;   -5,210; 1884,550; 0,03958
1074,81; 1696,530;   -3,820; 1858,750; 0,03957
1075,35; 1669,440;   -4,530; 1837,330; 0,04151
1075,88; 1647,360;   -4,720; 1805,890; 0,03979
1076,42; 1626,480;   -3,430; 1787,930; 0,04102
1076,96; 1604,960;   -5,210; 1763,750; 0,04085
1077,50; 1582,560;   -4,220; 1741,470; 0,04145
1078,04; 1561,460;   -4,250; 1718,050; 0,04140
1078,57; 1536,590;   -4,870; 1687,200; 0,04049
1079,11; 1511,940;   -3,070; 1668,040; 0,04259
1079,65; 1488,560;   -4,880; 1645,870; 0,04349
1080,19; 1468,810;   -4,820; 1619,100; 0,04218
1080,72; 1447,910;   -3,830; 1602,320; 0,04390
1081,26; 1423,660;   -4,780; 1581,180; 0,04543
1081,80; 1408,100;   -3,600; 1558,610; 0,04400
1082,33; 1392,830;   -4,560; 1540,040; 0,04350
1082,87; 1377,650;   -4,930; 1517,830; 0,04194
1083,41; 1356,660;   -3,130; 1495,290; 0,04216
1083,95; 1334,650;   -5,280; 1463,300; 0,03982
1084,48; 1318,350;   -4,550; 1444,180; 0,03946
1085,02; 1296,230;   -3,860; 1421,230; 0,03987
1085,56; 1274,890;   -4,890; 1398,840; 0,04015
1086,09; 1258,200;   -3,350; 1379,330; 0,03982
1086,63; 1239,710;   -5,490; 1360,780; 0,04030
1087,17; 1220,490;   -4,000; 1336,870; 0,03943
1087,70; 1206,060;   -3,720; 1319,680; 0,03898
1088,24; 1179,790;   -5,450; 1297,660; 0,04117
1088,78; 1166,900;   -3,320; 1277,800; 0,03932
1089,31; 1145,270;   -5,030; 1254,480; 0,03939
1089,85; 1125,870;   -3,780; 1234,200; 0,03977
1090,39; 1109,030;   -3,900; 1214,010; 0,03915
1090,92; 1093,580;   -5,350; 1194,330; 0,03810
1091,46; 1077,880;   -4,010; 1181,880; 0,03986
1092,00; 1066,620;   -3,540; 1168,520; 0,03950
1092,53; 1051,280;   -4,640; 1150,450; 0,03898
1093,07; 1040,400;   -3,530; 1134,960; 0,03766
1093,60; 1021,510;   -4,520; 1115,150; 0,03793
1094,14; 1004,770;   -4,080; 1096,610; 0,03784
1094,68;  984,690;   -3,370; 1082,490; 0,04099
1095,21;  969,510;   -5,450; 1062,150; 0,03942
1095,75;  956,020;   -3,120; 1047,170; 0,03943
1096,28;  940,770;   -4,390; 1033,810; 0,04078
1096,82;  929,920;   -4,540; 1015,040; 0,03786
1097,36;  912,830;   -3,610; 1005,280; 0,04174
1097,89;  898,180;   -5,580;  987,590; 0,04097
1098,43;  890,080;   -3,580;  977,200; 0,04040
1098,96;  876,510;   -4,290;  961,690; 0,04009
1099,50;  863,470;   -4,800;  941,650; 0,03744
1100,03;  844,330;   -3,390;  929,100; 0,04139

