AE-588-300-1
Integration time [ms]:   9,690
Averaging Nr. [scans]: 100
Smoothing Nr. [pixels]: 0
Data measured with spectrometer [name]: 7420287SP
Wave   ;Sample   ;Dark     ;Reference;Absorbance
[nm]   ;[counts] ;[counts] ;[counts] ;[A.U]

 179,38;  -21,016;   -7,110;    8,998; 5,00000
 179,98;  -21,575;   -6,520;    6,195; 5,00000
 180,58;  -11,439;   -5,360;   15,793; 5,00000
 181,18;  -20,872;   -6,600;   10,880; 5,00000
 181,78;  -26,678;   -5,730;    0,149; 5,00000
 182,38;  -31,737;   -5,470;   -1,284; 5,00000
 182,97;  -27,949;   -7,650;    0,032; 5,00000
 183,57;  -30,867;   -5,780;   -2,994; 5,00000
 184,17;  -41,343;   -6,950;  -14,352; 0,00000
 184,77;  -44,522;   -7,260;  -17,755; 0,00000
 185,37;  -50,620;   -6,010;  -21,290; 0,00000
 185,97;  -56,066;   -7,850;  -29,278; 0,00000
 186,57;  -57,089;   -7,270;  -26,893; 0,00000
 187,17;  -65,909;   -6,520;  -37,024; 0,00000
 187,77;  -88,441;   -7,760;  -59,634; 0,00000
 188,37;  -79,373;   -6,630;  -51,348; 0,00000
 188,97; -102,186;   -7,450;  -72,675; 0,00000
 189,57; -101,404;   -6,490;  -73,390; 0,00000
 190,17; -118,238;   -6,540;  -89,085; 0,00000
 190,77; -128,235;   -8,530;  -97,963; 0,00000
 191,37; -140,799;   -6,100; -113,717; 0,00000
 191,96; -153,924;   -6,760; -124,998; 0,00000
 192,56; -193,246;   -7,360; -165,961; 0,00000
 193,16; -180,803;   -6,490; -154,105; 0,00000
 193,76; -159,859;   -8,480; -130,068; 0,00000
 194,36; -209,780;   -6,480; -183,996; 0,00000
 194,96; -212,839;   -6,370; -185,208; 0,00000
 195,56; -166,164;   -7,450; -137,778; 0,00000
 196,16; -122,381;   -6,530;  -94,179; 0,00000
 196,76;  -73,655;   -7,620;  -44,472; 0,00000
 197,36;  -62,777;   -6,760;  -32,495; 0,00000
 197,95;  -37,889;   -6,630;   -9,158; 0,00000
 198,55;  -47,710;   -7,140;  -17,366; 0,00000
 199,15;  -40,304;   -5,420;   -9,398; 0,00000
 199,75;  -27,952;   -7,280;    0,600; 5,00000
 200,35;  -42,068;   -6,500;  -12,091; 0,00000
 200,95;  -32,921;   -5,890;   -0,912; 5,00000
 201,55;  -33,256;   -7,490;   -4,202; 5,00000
 202,15;  -34,249;   -5,870;   -6,758; 0,00000
 202,74;  -22,558;   -6,560;    7,284; 5,00000
 203,34;  -31,639;   -6,450;   -3,337; 5,00000
 203,94;  -13,582;   -5,190;   15,602; 5,00000
 204,54;  -29,852;   -7,300;   -1,539; 5,00000
 205,14;  -19,703;   -5,430;   11,164; 5,00000
 205,74;  -25,226;   -6,400;    6,079; 5,00000
 206,34;  -24,487;   -6,650;    3,591; 5,00000
 206,93;  -21,317;   -6,110;   10,322; 5,00000
 207,53;  -24,602;   -6,770;    7,281; 5,00000
 208,13;  -29,956;   -5,560;    2,349; 5,00000
 208,73;  -20,592;   -5,300;   13,062; 5,00000
 209,33;  -35,349;   -7,080;   -3,437; 5,00000
 209,93;  -22,384;   -5,400;    9,487; 5,00000
 210,52;  -25,017;   -6,060;    6,322; 5,00000
 211,12;  -15,123;   -5,430;   19,505; 5,00000
 211,72;  -21,469;   -5,290;    8,287; 5,00000
 212,32;  -18,746;   -6,530;   12,050; 5,00000
 212,92;  -24,982;   -4,650;    7,862; 5,00000
 213,52;  -23,003;   -5,930;    9,794; 5,00000
 214,11;  -25,071;   -6,380;    6,579; 5,00000
 214,71;  -16,488;   -4,070;   15,585; 5,00000
 215,31;  -27,516;   -6,580;    6,759; 5,00000
 215,91;   -7,504;   -4,390;   25,378; 5,00000
 216,51;  -21,639;   -4,670;   12,137; 5,00000
 217,10;  -19,091;   -5,810;   12,000; 5,00000
 217,70;  -29,521;   -5,080;    6,749; 5,00000
 218,30;  -13,134;   -6,050;   19,058; 5,00000
 218,90;  -26,282;   -5,200;    7,512; 5,00000
 219,50;  -13,650;   -4,900;   19,810; 5,00000
 220,09;  -15,542;   -6,880;   19,293; 5,00000
 220,69;  -17,659;   -5,070;   17,937; 5,00000
 221,29;  -13,157;   -5,340;   22,893; 5,00000
 221,89;  -31,995;   -5,260;    1,006; 5,00000
 222,49;  -16,801;   -4,140;   21,670; 5,00000
 223,08;  -16,538;   -5,890;   20,255; 5,00000
 223,68;  -14,227;   -4,880;   22,503; 5,00000
 224,28;  -22,550;   -5,320;   10,607; 5,00000
 224,88;  -21,087;   -5,500;   12,982; 5,00000
 225,47;  -25,166;   -4,220;   12,209; 5,00000
 226,07;  -14,293;   -5,990;   20,955; 5,00000
 226,67;  -23,688;   -4,400;   12,554; 5,00000
 227,27;  -14,304;   -4,480;   22,967; 5,00000
 227,87;  -23,864;   -6,030;   16,357; 5,00000
 228,46;  -17,299;   -4,320;   22,787; 5,00000
 229,06;  -22,711;   -5,700;   15,349; 5,00000
 229,66;  -14,803;   -5,400;   21,405; 5,00000
 230,26;  -20,908;   -4,190;   16,324; 5,00000
 230,85;  -27,587;   -5,860;   10,231; 5,00000
 231,45;  -26,266;   -4,350;   12,619; 5,00000
 232,05;  -19,837;   -4,990;   21,312; 5,00000
 232,64;  -31,682;   -5,810;    8,131; 5,00000
 233,24;  -34,199;   -3,940;    4,103; 5,00000
 233,84;  -37,641;   -5,850;    1,998; 5,00000
 234,44;  -29,030;   -4,990;    7,686; 5,00000
 235,03;  -44,009;   -4,340;   -4,888; 0,00000
 235,63;  -34,486;   -6,290;    3,558; 5,00000
 236,23;  -21,932;   -3,870;   18,681; 5,00000
 236,83;  -21,000;   -4,960;   19,586; 5,00000
 237,42;  -25,942;   -4,900;   16,151; 5,00000
 238,02;  -38,753;   -4,130;    2,290; 5,00000
 238,62;  -20,563;   -6,100;   19,914; 5,00000
 239,21;  -25,494;   -4,420;   15,043; 5,00000
 239,81;  -23,103;   -4,890;   19,874; 5,00000
 240,41;  -28,425;   -5,200;   14,526; 5,00000
 241,00;  -27,862;   -3,940;   17,511; 5,00000
 241,60;  -29,166;   -6,280;   13,188; 5,00000
 242,20;  -27,858;   -4,720;   17,453; 5,00000
 242,80;  -27,464;   -4,690;   16,153; 5,00000
 243,39;  -18,140;   -6,000;   24,427; 5,00000
 243,99;  -30,050;   -4,510;   13,975; 5,00000
 244,59;  -28,920;   -6,250;   16,356; 5,00000
 245,18;  -33,502;   -5,160;   12,491; 5,00000
 245,78;  -34,014;   -5,160;   14,983; 5,00000
 246,38;  -37,862;   -6,590;    9,541; 5,00000
 246,97;  -21,941;   -4,720;   24,419; 5,00000
 247,57;  -20,321;   -5,680;   26,590; 5,00000
 248,17;  -24,667;   -5,180;   24,002; 5,00000
 248,76;  -28,432;   -4,270;   23,001; 5,00000
 249,36;  -19,918;   -7,360;   30,085; 5,00000
 249,96;  -23,641;   -5,160;   25,699; 5,00000
 250,55;  -12,087;   -5,180;   38,583; 5,00000
 251,15;  -24,593;   -6,350;   25,134; 5,00000
 251,75;  -16,544;   -3,970;   34,937; 5,00000
 252,34;  -21,493;   -5,740;   29,584; 5,00000
 252,94;  -10,699;   -4,710;   42,798; 5,00000
 253,54;  -22,913;   -4,830;   29,314; 5,00000
 254,13;  -21,498;   -6,310;   30,364; 5,00000
 254,73;   -7,729;   -4,130;   46,638; 5,00000
 255,32;  -27,857;   -5,920;   25,871; 5,00000
 255,92;  -16,864;   -5,050;   39,637; 5,00000
 256,52;  -21,134;   -4,610;   37,837; 5,00000
 257,11;  -19,233;   -6,680;   35,585; 5,00000
 257,71;   -5,973;   -4,610;   52,756; 5,00000
 258,31;  -15,697;   -5,460;   43,092; 5,00000
 258,90;  -23,659;   -6,310;   36,637; 5,00000
 259,50;  -14,276;   -5,030;   45,970; 5,00000
 260,09;  -18,547;   -6,180;   41,212; 5,00000
 260,69;  -17,587;   -4,680;   42,332; 5,00000
 261,29;  -13,592;   -5,280;   47,542; 5,00000
 261,88;  -18,248;   -6,120;   43,425; 5,00000
 262,48;  -15,099;   -5,140;   47,847; 5,00000
 263,07;  -21,172;   -6,100;   45,442; 5,00000
 263,67;  -16,639;   -5,540;   51,237; 5,00000
 264,27;   -4,680;   -5,320;   63,621; 2,03244
 264,86;  -13,312;   -6,770;   55,273; 5,00000
 265,46;  -12,275;   -5,420;   60,830; 5,00000
 266,05;   -4,049;   -5,650;   69,638; 1,67232
 266,65;  -13,439;   -5,700;   59,048; 5,00000
 267,24;  -12,367;   -4,180;   64,223; 5,00000
 267,84;  -14,918;   -6,430;   63,285; 5,00000
 268,44;  -24,011;   -4,380;   54,619; 5,00000
 269,03;  -14,289;   -5,730;   67,128; 5,00000
 269,63;  -14,052;   -6,560;   67,713; 5,00000
 270,22;  -12,344;   -3,970;   72,058; 5,00000
 270,82;  -15,798;   -6,230;   70,595; 5,00000
 271,41;  -14,272;   -4,610;   76,443; 5,00000
 272,01;  -23,562;   -4,490;   69,582; 5,00000
 272,61;   -9,603;   -6,490;   88,096; 5,00000
 273,20;  -14,657;   -4,670;   85,573; 5,00000
 273,80;  -10,007;   -6,180;   92,503; 5,00000
 274,39;  -11,180;   -5,030;   95,260; 5,00000
 274,99;  -11,508;   -4,470;   97,555; 5,00000
 275,58;   -7,434;   -5,830;  108,358; 5,00000
 276,18;  -12,901;   -4,390;  106,780; 5,00000
 276,77;   -2,942;   -5,880;  118,103; 1,62525
 277,37;   -8,498;   -5,920;  117,405; 5,00000
 277,96;  -13,837;   -5,320;  120,802; 5,00000
 278,56;   -2,248;   -5,710;  134,945; 1,60882
 279,15;   -8,433;   -4,950;  134,785; 5,00000
 279,75;  -20,547;   -4,870;  131,721; 5,00000
 280,34;   -6,784;   -6,060;  150,967; 5,00000
 280,94;   -6,134;   -4,760;  164,667; 5,00000
 281,53;  -17,162;   -5,510;  171,941; 5,00000
 282,13;  -19,166;   -5,010;  194,309; 5,00000
 282,73;   -6,301;   -4,240;  241,090; 5,00000
 283,32;   -8,691;   -5,800;  284,850; 5,00000
 283,92;  -15,805;   -3,980;  339,716; 5,00000
 284,51;    0,726;   -5,290;  436,618; 1,86603
 285,10;  -12,249;   -6,110;  543,417; 5,00000
 285,70;  -14,561;   -4,410;  693,699; 5,00000
 286,29;   -7,454;   -5,850;  890,617; 5,00000
 286,89;    0,193;   -4,520; 1115,283; 2,37581
 287,48;  -15,668;   -4,870; 1328,754; 5,00000
 288,08;  -11,586;   -5,910; 1560,469; 5,00000
 288,67;  -14,252;   -4,490; 1776,761; 5,00000
 289,27;  -16,387;   -5,600; 1962,901; 5,00000
 289,86;   -5,701;   -4,970; 2117,730; 5,00000
 290,46;   -6,479;   -4,980; 2195,367; 5,00000
 291,05;   -5,622;   -6,580; 2213,952; 3,36501
 291,65;   -8,511;   -3,890; 2278,119; 5,00000
 292,24;   -6,287;   -5,590; 2480,342; 5,00000
 292,84;  -12,938;   -6,110; 2882,134; 5,00000
 293,43;   -7,687;   -4,350; 3506,612; 5,00000
 294,03;  -13,580;   -6,250; 4279,066; 5,00000
 294,62;  -13,121;   -3,900; 5178,679; 5,00000
 295,21;   -9,121;   -6,020; 6114,689; 5,00000
 295,81;  -11,484;   -6,160; 7028,427; 5,00000
 296,40;  -18,919;   -4,770; 7862,193; 5,00000
 297,00;   -8,333;   -5,680; 8549,895; 5,00000
 297,59;   -5,011;   -5,440; 8965,089; 4,32006
 298,19;    9,971;   -5,120; 9274,428; 2,78881
 298,78;   -2,132;   -6,640; 9809,121; 3,33795
 299,37;    7,035;   -3,870;10564,807; 2,98638
 299,97;   34,902;   -6,380;11220,006; 2,43448
 300,56;   31,937;   -4,940;11673,824; 2,50064
 301,16;   49,933;   -5,410;12015,332; 2,33687
 301,75;   66,067;   -6,700;12357,715; 2,23024
 302,35;   79,788;   -4,500;12780,091; 2,18092
 302,94;  101,369;   -5,790;13216,469; 2,09128
 303,53;  143,388;   -5,510;13577,342; 1,96010
 304,13;  175,804;   -4,390;13858,420; 1,88611
 304,72;  207,516;   -4,760;14134,757; 1,82353
 305,32;  248,301;   -4,930;14383,817; 1,75451
 305,91;  284,734;   -4,660;14619,439; 1,70358
 306,50;  329,779;   -6,610;14802,670; 1,64369
 307,10;  381,892;   -4,000;14978,785; 1,58913
 307,69;  425,960;   -5,750;15123,970; 1,54464
 308,28;  465,416;   -4,480;15203,757; 1,51008
 308,88;  523,280;   -4,830;15309,841; 1,46238
 309,47;  547,674;   -5,810;15345,229; 1,44303
 310,07;  589,228;   -4,750;15360,771; 1,41278
 310,66;  628,208;   -5,730;15396,962; 1,38555
 311,25;  675,421;   -5,110;15490,037; 1,35735
 311,85;  710,148;   -4,860;15598,062; 1,33890
 312,44;  756,670;   -6,680;15731,047; 1,31422
 313,03;  804,764;   -4,650;15872,220; 1,29259
 313,63;  849,076;   -5,410;16008,396; 1,27279
 314,22;  885,837;   -5,320;16089,435; 1,25673
 314,81;  926,852;   -4,550;16143,154; 1,23897
 315,41;  968,049;   -6,360;16195,409; 1,22082
 316,00;  994,345;   -4,980;16203,836; 1,21004
 316,59; 1033,805;   -5,590;16209,926; 1,19315
 317,19; 1067,691;   -6,090;16181,987; 1,17828
 317,78; 1115,816;   -4,390;16235,057; 1,16127
 318,37; 1162,092;   -6,640;16408,174; 1,14752
 318,97; 1206,986;   -5,200;16631,344; 1,13749
 319,56; 1270,598;   -4,420;16923,391; 1,12308
 320,15; 1329,153;   -5,910;17168,990; 1,10939
 320,75; 1391,288;   -4,420;17406,980; 1,09604
 321,34; 1440,175;   -5,770;17556,967; 1,08444
 321,93; 1500,993;   -5,350;17708,092; 1,07038
 322,53; 1550,568;   -3,880;17793,021; 1,05877
 323,12; 1598,089;   -6,090;17860,770; 1,04680
 323,71; 1648,197;   -4,820;17853,564; 1,03356
 324,31; 1711,841;   -4,460;17858,896; 1,01737
 324,90; 1764,444;   -6,030;17859,250; 1,00392
 325,49; 1821,405;   -4,500;17828,246; 0,98974
 326,09; 1876,340;   -5,790;17771,186; 0,97521
 326,68; 1932,383;   -4,620;17735,041; 0,96182
 327,27; 2002,663;   -4,600;17659,313; 0,94448
 327,86; 2071,581;   -5,770;17643,656; 0,92922
 328,46; 2143,733;   -4,120;17628,922; 0,91432
 329,05; 2220,264;   -5,700;17606,910; 0,89831
 329,64; 2287,492;   -5,220;17584,555; 0,88491
 330,23; 2373,149;   -4,640;17566,141; 0,86862
 330,83; 2419,224;   -6,180;17479,148; 0,85789
 331,42; 2504,828;   -3,990;17390,023; 0,84093
 332,01; 2555,694;   -6,100;17273,080; 0,82898
 332,61; 2604,262;   -5,490;17128,625; 0,81726
 333,20; 2647,817;   -4,450;17016,805; 0,80737
 333,79; 2711,445;   -6,430;17003,967; 0,79648
 334,38; 2805,746;   -5,440;17104,178; 0,78435
 334,98; 2912,257;   -4,980;17284,174; 0,77280
 335,57; 3017,137;   -6,500;17528,475; 0,76338
 336,16; 3102,858;   -4,050;17684,371; 0,75536
 336,75; 3200,678;   -5,500;17804,752; 0,74468
 337,34; 3273,347;   -5,350;17858,355; 0,73627
 337,94; 3339,301;   -4,520;17874,357; 0,72810
 338,53; 3397,043;   -6,340;17871,621; 0,72041
 339,12; 3449,583;   -4,190;17810,111; 0,71248
 339,71; 3489,619;   -5,130;17711,260; 0,70496
 340,31; 3510,244;   -5,420;17551,670; 0,69845
 340,90; 3522,908;   -4,710;17330,453; 0,69145
 341,49; 3483,960;   -6,270;16924,146; 0,68581
 342,08; 3446,585;   -5,020;16494,426; 0,67945
 342,67; 3441,518;   -5,610;16237,401; 0,67321
 343,27; 3484,340;   -5,550;16271,576; 0,66877
 343,86; 3567,304;   -4,290;16469,127; 0,66392
 344,45; 3636,386;   -5,490;16656,480; 0,66040
 345,04; 3696,067;   -4,790;16774,129; 0,65646
 345,63; 3734,654;   -4,500;16811,758; 0,65296
 346,23; 3772,049;   -6,400;16813,229; 0,64850
 346,82; 3761,572;   -4,430;16755,629; 0,64839
 347,41; 3761,551;   -5,820;16664,383; 0,64590
 348,00; 3739,581;   -5,440;16497,873; 0,64412
 348,59; 3718,289;   -4,310;16322,787; 0,64206
 349,19; 3696,301;   -6,890;16211,792; 0,64144
 349,78; 3685,191;   -4,490;16092,343; 0,63975
 350,37; 3686,013;   -5,390;15990,562; 0,63682
 350,96; 3676,890;   -5,710;15871,996; 0,63463
 351,55; 3652,779;   -3,900;15672,729; 0,63217
 352,14; 3642,378;   -6,120;15517,991; 0,62889
 352,74; 3627,998;   -4,590;15329,781; 0,62545
 353,33; 3610,141;   -4,630;15083,347; 0,62055
 353,92; 3587,734;   -6,470;14803,760; 0,61496
 354,51; 3557,370;   -4,210;14536,847; 0,61095
 355,10; 3553,571;   -5,370;14310,247; 0,60449
 355,69; 3576,737;   -4,430;14173,033; 0,59757
 356,28; 3646,163;   -5,030;14197,122; 0,58992
 356,88; 3728,606;   -6,960;14259,414; 0,58196
 357,47; 3824,508;   -4,450;14335,252; 0,57346
 358,06; 3915,452;   -5,810;14383,135; 0,56460
 358,65; 3988,722;   -5,410;14395,193; 0,55696
 359,24; 4045,416;   -4,760;14324,442; 0,54875
 359,83; 4122,605;   -5,780;14257,117; 0,53843
 360,42; 4176,899;   -4,390;14180,060; 0,53050
 361,01; 4233,150;   -5,410;14106,137; 0,52236
 361,61; 4267,661;   -5,790;13997,793; 0,51546
 362,20; 4308,780;   -4,580;13887,937; 0,50797
 362,79; 4310,082;   -5,940;13684,633; 0,50134
 363,38; 4288,687;   -4,890;13428,544; 0,49537
 363,97; 4228,166;   -4,250;13042,817; 0,48892
 364,56; 4134,010;   -6,270;12641,035; 0,48497
 365,15; 4115,256;   -4,670;12473,142; 0,48125
 365,74; 4228,860;   -6,200;12681,175; 0,47651
 366,33; 4402,724;   -5,230;13044,999; 0,47138
 366,92; 4523,880;   -4,710;13285,856; 0,46758
 367,51; 4560,866;   -5,970;13346,582; 0,46595
 368,11; 4568,648;   -4,020;13287,397; 0,46340
 368,70; 4596,608;   -5,120;13288,441; 0,46072
 369,29; 4599,842;   -4,850;13200,765; 0,45756
 369,88; 4539,485;   -4,640;12994,266; 0,45646
 370,47; 4504,957;   -5,700;12887,893; 0,45613
 371,06; 4493,981;   -4,480;12828,213; 0,45525
 371,65; 4490,404;   -4,740;12778,499; 0,45390
 372,24; 4460,809;   -6,210;12679,279; 0,45329
 372,83; 4419,823;   -4,530;12579,400; 0,45397
 373,42; 4391,831;   -6,220;12480,546; 0,45319
 374,01; 4351,607;   -5,240;12390,730; 0,45411
 374,60; 4339,965;   -4,640;12375,426; 0,45477
 375,19; 4321,719;   -5,830;12350,048; 0,45563
 375,78; 4298,721;   -3,930;12327,173; 0,45727
 376,37; 4325,167;   -5,020;12448,391; 0,45878
 376,96; 4406,992;   -5,550;12699,714; 0,45929
 377,55; 4482,589;   -4,650;13002,878; 0,46222
 378,14; 4588,048;   -6,260;13329,712; 0,46280
 378,73; 4658,914;   -4,040;13644,688; 0,46643
 379,32; 4605,590;   -5,260;13588,305; 0,46955
 379,91; 4524,949;   -5,860;13392,578; 0,47088
 380,50; 4460,305;   -4,950;13318,916; 0,47478
 381,09; 4355,280;   -5,580;13148,945; 0,47950
 381,68; 4316,803;   -4,800;13154,610; 0,48359
 382,27; 4291,862;   -5,540;13204,130; 0,48769
 382,86; 4221,445;   -6,540;13085,866; 0,49089
 383,45; 4097,425;   -4,510;12889,805; 0,49741
 384,04; 3958,724;   -5,600;12605,229; 0,50257
 384,63; 3805,573;   -5,930;12225,111; 0,50637
 385,22; 3666,650;   -4,820;11973,016; 0,51354
 385,81; 3653,958;   -6,550;12081,691; 0,51882
 386,40; 3701,549;   -4,610;12450,788; 0,52643
 386,99; 3790,965;   -5,510;12898,586; 0,53135
 387,58; 3846,713;   -6,170;13250,120; 0,53664
 388,17; 3844,390;   -4,490;13438,625; 0,54317
 388,76; 3748,489;   -5,690;13266,298; 0,54842
 389,35; 3626,680;   -4,390;12970,575; 0,55307
 389,94; 3586,133;   -5,090;12965,490; 0,55772
 390,53; 3560,400;   -6,660;13052,604; 0,56361
 391,12; 3567,753;   -4,090;13248,967; 0,56942
 391,71; 3661,669;   -5,660;13687,788; 0,57216
 392,30; 3751,519;   -4,980;14159,938; 0,57643
 392,89; 3704,559;   -4,920;14090,508; 0,57977
 393,48; 3486,748;   -6,070;13416,310; 0,58465
 394,07; 3338,794;   -4,390;12990,309; 0,58961
 394,66; 3269,099;   -5,230;12821,199; 0,59298
 395,25; 3174,920;   -5,410;12623,845; 0,59891
 395,84; 3133,773;   -3,960;12605,530; 0,60408
 396,43; 3144,805;   -6,160;12805,306; 0,60916
 397,01; 3209,531;   -4,690;13258,662; 0,61558
 397,60; 3327,402;   -4,390;13915,010; 0,62094
 398,19; 3385,144;   -6,520;14320,738; 0,62575
 398,78; 3238,034;   -4,780;13913,148; 0,63265
 399,37; 3061,720;   -5,500;13338,616; 0,63854
 399,96; 2908,415;   -4,400;12904,796; 0,64659
 400,55; 2822,022;   -5,160;12782,150; 0,65543
 401,14; 2739,139;   -6,120;12560,469; 0,66063
 401,73; 2614,549;   -4,310;12303,928; 0,67208
 402,32; 2539,477;   -5,010;12197,703; 0,68086
 402,91; 2464,293;   -5,470;12126,181; 0,69126
 403,49; 2405,424;   -4,330;12114,188; 0,70148
 404,08; 2335,136;   -6,270;12130,782; 0,71464
 404,67; 2292,035;   -4,520;12163,096; 0,72413
 405,26; 2174,207;   -5,270;11984,179; 0,74045
 405,85; 2023,809;   -5,410;11429,987; 0,75092
 406,44; 1882,822;   -4,180;10996,220; 0,76564
 407,03; 1808,281;   -6,090;10907,043; 0,77922
 407,62; 1783,728;   -4,930;11104,370; 0,79316
 408,20; 1778,435;   -5,010;11478,955; 0,80883
 408,79; 1723,302;   -6,000;11509,460; 0,82341
 409,38; 1647,739;   -4,270;11388,948; 0,83863
 409,97; 1539,494;   -5,550;11076,298; 0,85567
 410,56; 1435,750;   -4,660;10733,605; 0,87245
 411,15; 1351,950;   -4,520;10500,056; 0,88897
 411,73; 1281,335;   -6,800;10382,046; 0,90661
 412,32; 1224,914;   -4,650;10360,567; 0,92583
 412,91; 1166,901;   -5,740;10265,272; 0,94245
 413,50; 1105,650;   -5,650;10075,335; 0,95767
 414,09; 1030,751;   -4,440; 9793,643; 0,97612
 414,68;  977,205;   -6,240; 9629,455; 0,99113
 415,26;  942,866;   -4,460; 9654,133; 1,00841
 415,85;  919,859;   -5,050; 9865,457; 1,02824
 416,44;  912,091;   -6,190;10028,993; 1,03855
 417,03;  889,800;   -4,610;10144,815; 1,05490
 417,62;  868,256;   -5,980;10267,702; 1,07010
 418,21;  861,186;   -4,100;10469,013; 1,08292
 418,79;  850,362;   -3,930;10688,229; 1,09746
 419,38;  849,955;   -5,820;10904,525; 1,10548
 419,97;  844,453;   -3,780;11285,066; 1,12413
 420,56;  872,256;   -5,950;11926,382; 1,13313
 421,15;  908,777;   -5,110;12596,360; 1,13953
 421,73;  877,086;   -4,140;12471,731; 1,15098
 422,32;  816,666;   -6,020;11833,822; 1,15811
 422,91;  767,622;   -4,410;11259,720; 1,16406
 423,50;  737,899;   -5,380;10914,259; 1,16706
 424,08;  723,113;   -6,220;10830,341; 1,17197
 424,67;  701,294;   -4,380;10776,268; 1,18404
 425,26;  671,139;   -6,480;10476,968; 1,18952
 425,85;  647,446;   -5,190;10196,813; 1,19401
 426,43;  629,340;   -5,300;10211,754; 1,20680
 427,02;  649,734;   -5,340;10496,108; 1,20496
 427,61;  632,286;   -4,330;10585,611; 1,22102
 428,20;  657,213;   -5,260;10858,340; 1,21481
 428,79;  693,637;   -5,140;11600,280; 1,22032
 429,37;  762,708;   -3,820;12696,931; 1,21930
 429,96;  748,861;   -6,360;12891,401; 1,23244
 430,55;  716,870;   -4,620;12251,905; 1,23014
 431,13;  640,035;   -5,180;11069,716; 1,23464
 431,72;  574,585;   -5,530;10133,215; 1,24247
 432,31;  556,947;   -4,780; 9925,630; 1,24744
 432,90;  605,931;   -5,750;10643,863; 1,24081
 433,48;  631,980;   -4,950;11457,544; 1,25519
 434,07;  583,181;   -5,120;10676,022; 1,25902
 434,66;  558,657;   -6,690;10276,490; 1,25981
 435,25;  547,807;   -4,470;10095,280; 1,26215
 435,83;  541,354;   -6,100;10233,827; 1,27195
 436,42;  529,992;   -4,960;10170,119; 1,27922
 437,01;  519,795;   -4,610; 9786,746; 1,27118
 437,59;  507,700;   -6,640; 9749,056; 1,27801
 438,18;  511,676;   -4,720; 9920,453; 1,28375
 438,77;  493,192;   -4,960; 9843,400; 1,29600
 439,35;  474,749;   -4,970; 9651,257; 1,30382
 439,94;  464,437;   -4,330; 9618,989; 1,31237
 440,53;  494,932;   -6,110;10410,790; 1,31786
 441,11;  533,047;   -5,210;11278,899; 1,32148
 441,70;  505,526;   -4,840;11069,691; 1,33644
 442,29;  497,478;   -5,300;10785,061; 1,33166
 442,87;  493,516;   -4,390;11041,802; 1,34607
 443,46;  487,379;   -6,060;11081,647; 1,35161
 444,05;  453,210;   -4,660;10754,773; 1,37105
 444,63;  450,886;   -4,780;10548,992; 1,36476
 445,22;  433,845;   -6,370;10276,085; 1,36843
 445,81;  431,259;   -4,390;10333,277; 1,37529
 446,39;  421,900;   -4,640;10281,625; 1,38230
 446,98;  373,771;   -4,960; 9820,440; 1,41402
 447,57;  370,805;   -3,710; 9485,115; 1,40374
 448,15;  353,470;   -6,640; 9340,465; 1,41424
 448,74;  352,420;   -4,560; 9475,474; 1,42417
 449,33;  348,150;   -5,240; 9513,834; 1,43034
 449,91;  336,149;   -5,460; 9419,184; 1,44074
 450,50;  338,260;   -4,760; 9262,544; 1,43163
 451,08;  328,436;   -6,070; 9124,941; 1,43612
 451,67;  334,230;   -4,300; 9156,545; 1,43234
 452,26;  318,325;   -3,990; 8956,534; 1,44405
 452,84;  309,686;   -5,810; 8562,532; 1,43390
 453,43;  305,669;   -4,520; 8353,617; 1,43048
 454,02;  304,599;   -6,000; 8253,918; 1,42478
 454,60;  310,260;   -4,970; 8506,944; 1,43140
 455,19;  317,897;   -5,800; 8685,310; 1,42894
 455,77;  309,867;   -6,120; 8302,359; 1,41985
 456,36;  306,662;   -4,170; 8197,319; 1,42137
 456,95;  332,686;   -5,470; 8452,063; 1,39813
 457,53;  352,478;   -5,520; 8688,230; 1,38533
 458,12;  359,093;   -4,440; 8706,320; 1,37951
 458,70;  365,765;   -6,350; 8714,096; 1,36986
 459,29;  374,768;   -4,310; 8884,757; 1,37013
 459,87;  381,561;   -5,620; 8730,492; 1,35340
 460,46;  387,872;   -5,920; 8684,689; 1,34378
 461,05;  395,146;   -4,670; 8434,683; 1,32445
 461,63;  370,361;   -5,640; 7638,243; 1,30812
 462,22;  365,286;   -5,000; 7377,562; 1,29967
 462,80;  390,140;   -4,730; 7579,165; 1,28344
 463,39;  426,613;   -6,030; 7920,697; 1,26296
 463,97;  465,951;   -4,330; 8131,772; 1,23806
 464,56;  514,786;   -5,360; 8622,482; 1,21978
 465,14;  556,557;   -4,760; 8990,919; 1,20483
 465,73;  589,568;   -3,120; 8860,700; 1,17480
 466,31;  527,976;   -5,760; 7830,991; 1,16681
 466,90;  524,262;   -4,090; 7216,580; 1,13565
 467,49;  542,962;   -4,290; 7011,400; 1,10788
 468,07;  545,277;   -5,660; 6775,029; 1,09017
 468,66;  546,005;   -5,020; 6438,934; 1,06798
 469,24;  564,362;   -6,240; 6212,130; 1,03734
 469,83;  579,439;   -4,510; 6051,877; 1,01584
 470,41;  607,572;   -4,790; 6020,390; 0,99296
 471,00;  637,981;   -6,220; 6002,212; 0,96974
 471,58;  702,475;   -3,970; 6134,544; 0,93899
 472,17;  753,493;   -5,420; 6260,077; 0,91676
 472,75;  845,588;   -4,340; 6497,520; 0,88366
 473,34;  898,582;   -4,640; 6634,969; 0,86635
 473,92;  951,612;   -6,070; 6601,430; 0,83882
 474,51; 1064,405;   -4,240; 6916,545; 0,81132
 475,09; 1140,595;   -5,720; 7104,314; 0,79257
 475,68; 1131,716;   -5,460; 6712,481; 0,77141
 476,26; 1172,674;   -4,020; 6530,137; 0,74453
 476,85; 1187,317;   -6,180; 6292,899; 0,72246
 477,43; 1284,901;   -4,390; 6504,901; 0,70318
 478,01; 1392,386;   -5,370; 6647,962; 0,67761
 478,60; 1416,805;   -6,120; 6471,654; 0,65824
 479,18; 1526,330;   -4,250; 6621,395; 0,63637
 479,77; 1685,641;   -6,160; 6975,782; 0,61563
 480,35; 1734,274;   -5,200; 6876,148; 0,59726
 480,94; 1814,157;   -4,500; 6920,330; 0,58066
 481,52; 1933,852;   -6,170; 7078,149; 0,56249
 482,11; 1881,440;   -3,850; 6632,005; 0,54652
 482,69; 1889,218;   -5,220; 6390,371; 0,52840
 483,27; 1982,991;   -5,110; 6471,612; 0,51292
 483,86; 2206,372;   -4,630; 6928,670; 0,49635
 484,44; 2710,723;   -5,120; 8190,856; 0,47970
 485,03; 5236,983;   -3,890;15113,356; 0,46007
 485,61; 8589,458;   -5,060;24322,736; 0,45188
 486,20; 5532,282;   -5,780;15510,539; 0,44743
 486,78; 3423,387;   -4,650; 9340,438; 0,43554
 487,36; 2686,657;   -6,270; 7115,529; 0,42237
 487,95; 2349,831;   -4,590; 6062,471; 0,41109
 488,53; 2336,322;   -4,860; 5871,479; 0,39967
 489,12; 2303,291;   -6,480; 5669,852; 0,39050
 489,70; 2254,861;   -4,090; 5438,611; 0,38191
 490,28; 2288,665;   -5,820; 5392,220; 0,37155
 490,87; 2386,482;   -4,040; 5496,718; 0,36193
 491,45; 2412,065;   -3,860; 5460,720; 0,35447
 492,04; 2469,715;   -5,990; 5485,119; 0,34596
 492,62; 2505,198;   -4,510; 5467,521; 0,33853
 493,20; 2612,754;   -5,600; 5578,742; 0,32894
 493,79; 2670,004;   -5,330; 5616,836; 0,32253
 494,37; 2699,475;   -4,370; 5576,673; 0,31473
 494,95; 2621,990;   -6,470; 5340,182; 0,30838
 495,54; 2872,262;   -3,440; 5765,851; 0,30238
 496,12; 3142,342;   -5,470; 6213,000; 0,29567
 496,71; 2851,044;   -6,210; 5574,493; 0,29074
 497,29; 2594,582;   -4,670; 5042,672; 0,28821
 497,87; 2612,334;   -5,230; 5006,571; 0,28210
 498,46; 2712,401;   -4,960; 5161,877; 0,27908
 499,04; 2903,248;   -5,080; 5455,535; 0,27360
 499,62; 2921,987;   -6,210; 5472,297; 0,27206
 500,21; 2833,506;   -4,440; 5243,382; 0,26698
 500,79; 3016,406;   -5,780; 5516,692; 0,26181
 501,37; 3089,972;   -4,850; 5623,882; 0,25977
 501,96; 3160,554;   -5,060; 5679,320; 0,25423
 502,54; 3160,239;   -6,430; 5638,692; 0,25107
 503,12; 3192,808;   -4,120; 5658,858; 0,24831
 503,71; 3078,205;   -5,740; 5425,757; 0,24581
 504,29; 3060,718;   -5,680; 5341,613; 0,24151
 504,87; 3106,421;   -4,140; 5380,955; 0,23835
 505,45; 3152,239;   -5,420; 5373,715; 0,23135
 506,04; 3291,678;   -3,420; 5558,190; 0,22733
 506,62; 3126,344;   -5,020; 5246,018; 0,22451
 507,20; 3078,057;   -5,990; 5120,641; 0,22071
 507,79; 3179,878;   -3,890; 5244,935; 0,21712
 508,37; 3182,214;   -5,960; 5191,644; 0,21226
 508,95; 3032,928;   -5,310; 4920,298; 0,20984
 509,53; 3061,105;   -4,720; 4924,208; 0,20621
 510,12; 3059,791;   -6,350; 4899,899; 0,20416
 510,70; 2987,682;   -4,010; 4748,836; 0,20104
 511,28; 2913,875;   -5,130; 4605,229; 0,19850
 511,87; 2783,517;   -5,470; 4382,706; 0,19684
 512,45; 2823,804;   -4,440; 4416,259; 0,19397
 513,03; 2821,204;   -5,800; 4391,799; 0,19189
 513,61; 2760,997;   -3,880; 4274,630; 0,18962
 514,20; 2735,369;   -4,780; 4210,569; 0,18706
 514,78; 2628,895;   -5,880; 4033,147; 0,18553
 515,36; 2717,828;   -4,680; 4131,142; 0,18159
 515,94; 2843,508;   -5,760; 4305,274; 0,17985
 516,52; 2863,578;   -4,620; 4320,483; 0,17839
 517,11; 2766,461;   -4,890; 4128,679; 0,17363
 517,69; 2719,423;   -6,420; 4050,334; 0,17268
 518,27; 2788,863;   -3,610; 4135,854; 0,17096
 518,85; 2966,385;   -5,530; 4344,704; 0,16548
 519,44; 2830,939;   -5,590; 4137,666; 0,16455
 520,02; 2703,234;   -4,930; 3922,927; 0,16148
 520,60; 2767,309;   -5,740; 4000,346; 0,15976
 521,18; 2826,183;   -4,400; 4074,244; 0,15864
 521,76; 2856,045;   -5,590; 4085,933; 0,15527
 522,35; 3025,351;   -5,800; 4291,255; 0,15156
 522,93; 3152,072;   -4,110; 4437,493; 0,14838
 523,51; 3334,291;   -6,130; 4665,015; 0,14562
 524,09; 3433,431;   -4,020; 4787,945; 0,14428
 524,67; 3496,136;   -4,220; 4842,116; 0,14130
 525,26; 3659,294;   -5,760; 5024,741; 0,13753
 525,84; 3862,270;   -3,820; 5259,229; 0,13397
 526,42; 4083,189;   -5,800; 5528,952; 0,13148
 527,00; 4254,095;   -4,910; 5738,248; 0,12984
 527,58; 4432,690;   -4,270; 5940,199; 0,12703
 528,16; 4832,248;   -6,430; 6448,524; 0,12517
 528,75; 5105,874;   -4,290; 6767,192; 0,12225
 529,33; 5119,799;   -5,040; 6747,773; 0,11980
 529,91; 5137,334;   -5,230; 6738,563; 0,11772
 530,49; 5169,999;   -4,620; 6758,463; 0,11627
 531,07; 5218,698;   -6,070; 6780,956; 0,11361
 531,65; 5235,914;   -4,880; 6775,537; 0,11186
 532,23; 5240,188;   -5,010; 6762,517; 0,11067
 532,82; 5410,504;   -5,590; 6974,594; 0,11018
 533,40; 5399,566;   -3,630; 6954,271; 0,10983
 533,98; 5327,637;   -5,740; 6846,630; 0,10884
 534,56; 5253,558;   -4,040; 6740,677; 0,10818
 535,14; 5142,639;   -4,780; 6580,928; 0,10701
 535,72; 4955,006;   -6,250; 6318,303; 0,10544
 536,30; 4780,583;   -4,290; 6070,458; 0,10366
 536,88; 4847,630;   -5,730; 6129,496; 0,10179
 537,47; 5071,801;   -5,090; 6398,243; 0,10081
 538,05; 5212,910;   -4,710; 6564,664; 0,10005
 538,63; 5338,503;   -6,180; 6689,292; 0,09786
 539,21; 5407,313;   -4,600; 6745,702; 0,09597
 539,79; 5426,277;   -5,160; 6740,590; 0,09412
 540,37; 5619,125;   -5,600; 6961,065; 0,09292
 540,95; 5816,375;   -4,440; 7196,376; 0,09240
 541,53; 5876,536;   -5,820; 7232,527; 0,09009
 542,11; 5941,816;   -4,090; 7309,454; 0,08991
 542,69; 6005,965;   -4,960; 7328,966; 0,08640
 543,27; 6115,896;   -6,420; 7433,877; 0,08467
 543,85; 6231,748;   -4,370; 7548,492; 0,08320
 544,44; 6316,397;   -5,890; 7619,046; 0,08136
 545,02; 6250,334;   -4,910; 7528,551; 0,08075
 545,60; 6167,623;   -4,650; 7408,982; 0,07959
 546,18; 6306,078;   -5,240; 7539,811; 0,07754
 546,76; 6658,815;   -4,960; 7946,127; 0,07671
 547,34; 7153,929;   -4,800; 8503,064; 0,07498
 547,92; 7380,767;   -4,980; 8748,396; 0,07378
 548,50; 7295,867;   -4,610; 8588,105; 0,07078
 549,08; 7365,819;   -6,410; 8615,825; 0,06802
 549,66; 7674,035;   -4,320; 8932,722; 0,06593
 550,24; 7956,210;   -4,990; 9209,013; 0,06347
 550,82; 8242,499;   -5,360; 9498,965; 0,06158
 551,40; 8893,335;   -3,300;10238,481; 0,06115
 551,98; 9446,859;   -5,440;10860,234; 0,06052
 552,56; 9695,874;   -4,820;11100,096; 0,05871
 553,14;10021,223;   -4,670;11432,398; 0,05719
 553,72;10315,656;   -6,140;11711,830; 0,05510
 554,30;10566,977;   -4,050;11982,819; 0,05459
 554,88;11080,771;   -5,750;12572,264; 0,05482
 555,46;11451,068;   -4,880;12963,958; 0,05387
 556,04;11595,774;   -4,010;13082,517; 0,05237
 556,62;11695,790;   -6,440;13154,718; 0,05103
 557,20;11908,655;   -3,950;13370,153; 0,05026
 557,78;12097,551;   -5,340;13525,174; 0,04843
 558,36;12167,841;   -5,980;13585,824; 0,04785
 558,94;12375,258;   -4,310;13770,318; 0,04637
 559,52;12712,822;   -6,060;14147,013; 0,04640
 560,10;13032,566;   -4,370;14486,854; 0,04593
 560,68;13207,592;   -4,570;14662,172; 0,04536
 561,26;13240,582;   -6,000;14646,192; 0,04380
 561,84;13244,763;   -4,310;14644,543; 0,04362
 562,42;13442,626;   -6,610;14826,505; 0,04253
 563,00;13786,563;   -4,630;15138,292; 0,04061
 563,58;14165,032;   -4,310;15494,233; 0,03894
 564,15;14497,130;   -5,780;15798,239; 0,03731
 564,73;14806,326;   -4,090;16136,785; 0,03736
 565,31;15077,312;   -5,560;16434,076; 0,03741
 565,89;15460,188;   -5,280;16852,828; 0,03745
 566,47;15845,579;   -4,100;17266,021; 0,03727
 567,05;16381,726;   -5,790;17859,629; 0,03750
 567,63;16710,813;   -4,890;18165,754; 0,03625
 568,21;17219,119;   -4,440;18678,672; 0,03533
 568,79;17793,115;   -6,050;19237,020; 0,03387
 569,37;18554,051;   -4,080;20062,637; 0,03394
 569,95;18876,139;   -6,120;20383,936; 0,03336
 570,53;19399,518;   -4,300;20939,088; 0,03316
 571,10;19697,791;   -4,380;21241,170; 0,03275
 571,68;19857,510;   -6,390;21372,480; 0,03192
 572,26;19367,283;   -4,050;20790,295; 0,03079
 572,84;20338,039;   -5,440;21854,734; 0,03123
 573,42;21153,648;   -4,400;22685,396; 0,03035
 574,00;21768,002;   -4,360;23371,271; 0,03086
 574,58;21695,604;   -5,410;23298,857; 0,03096
 575,16;21045,264;   -4,450;22566,332; 0,03030
 575,73;21179,111;   -4,990;22718,398; 0,03046
 576,31;22271,143;   -5,050;23878,748; 0,03026
 576,89;23083,553;   -4,890;24686,297; 0,02915
 577,47;24509,676;   -5,640;26187,012; 0,02874
 578,05;23610,406;   -3,830;25106,822; 0,02668
 578,63;22534,531;   -4,660;23921,383; 0,02593
 579,21;22764,840;   -5,300;24169,705; 0,02600
 579,78;23384,391;   -4,120;24789,994; 0,02535
 580,36;24029,139;   -5,990;25506,721; 0,02591
 580,94;26054,844;   -4,930;27754,170; 0,02743
 581,52;26308,242;   -4,210;28000,449; 0,02707
 582,10;25205,334;   -6,520;26744,906; 0,02574
 582,67;24074,211;   -4,510;25411,705; 0,02348
 583,25;23750,416;   -5,530;24988,957; 0,02207
 583,83;24283,070;   -5,310;25497,186; 0,02118
 584,41;25223,762;   -4,260;26493,873; 0,02133
 584,99;25897,826;   -6,050;27163,625; 0,02072
 585,57;25613,340;   -4,600;26773,727; 0,01924
 586,14;25429,480;   -4,960;26543,770; 0,01862
 586,72;26018,828;   -5,530;27203,932; 0,01934
 587,30;26250,682;   -4,110;27436,443; 0,01918
 587,88;26233,750;   -5,800;27388,404; 0,01870
 588,45;26295,598;   -4,560;27443,031; 0,01855
 589,03;26391,045;   -4,130;27546,209; 0,01860
 589,61;26728,762;   -5,140;27904,295; 0,01869
 590,19;26945,602;   -4,280;28123,516; 0,01858
 590,77;27204,020;   -5,400;28409,002; 0,01882
 591,34;27552,760;   -4,750;28784,891; 0,01900
 591,92;27939,852;   -4,900;29212,699; 0,01934
 592,50;28603,459;   -6,440;29840,543; 0,01838
 593,08;28772,471;   -3,930;29976,813; 0,01781
 593,65;28729,746;   -5,330;29944,469; 0,01798
 594,23;28835,291;   -5,390;30009,059; 0,01732
 594,81;29108,701;   -4,220;30234,799; 0,01648
 595,39;29246,414;   -5,910;30391,623; 0,01668
 595,96;29355,990;   -4,390;30590,801; 0,01789
 596,54;29578,990;   -4,970;30873,852; 0,01860
 597,12;29924,248;   -5,110;31175,736; 0,01779
 597,69;30134,107;   -3,310;31338,148; 0,01701
 598,27;30500,365;   -5,390;31712,092; 0,01692
 598,85;30732,230;   -4,950;31937,922; 0,01671
 599,43;30780,322;   -5,110;31989,500; 0,01673
 600,00;30820,635;   -5,990;32126,084; 0,01801
 600,58;30806,197;   -4,300;32180,908; 0,01896
 601,16;30851,689;   -4,710;32195,244; 0,01851
 601,73;30998,119;   -5,640;32236,727; 0,01701
 602,31;31190,338;   -4,300;32360,947; 0,01600
 602,89;31343,178;   -6,590;32560,871; 0,01655
 603,46;31441,426;   -4,360;32703,152; 0,01709
 604,04;31508,281;   -5,150;32845,133; 0,01804
 604,62;31595,941;   -5,600;32927,160; 0,01792
 605,19;31815,230;   -4,150;33099,266; 0,01718
 605,77;31908,395;   -5,760;33164,250; 0,01676
 606,35;31896,723;   -4,850;33150,660; 0,01674
 606,92;32009,127;   -3,990;33220,434; 0,01613
 607,50;32036,086;   -6,550;33157,086; 0,01493
 608,08;32131,344;   -4,260;33184,164; 0,01400
 608,65;32241,203;   -5,240;33285,961; 0,01385
 609,23;32299,980;   -4,850;33354,836; 0,01395
 609,81;32450,613;   -4,060;33459,629; 0,01330
 610,38;32447,652;   -5,910;33419,234; 0,01281
 610,96;32427,969;   -4,150;33473,617; 0,01378
 611,54;32445,508;   -5,630;33526,098; 0,01423
 612,11;32481,859;   -5,630;33578,258; 0,01441
 612,69;32533,176;   -4,200;33678,074; 0,01502
 613,26;32595,299;   -5,950;33790,145; 0,01563
 613,84;32614,791;   -3,890;33749,133; 0,01485
 614,42;32639,451;   -4,870;33748,535; 0,01451
 614,99;32700,779;   -5,940;33759,488; 0,01384
 615,57;32628,324;   -4,720;33678,309; 0,01375
 616,14;32631,441;   -5,560;33720,414; 0,01425
 616,72;32650,322;   -4,440;33717,316; 0,01396
 617,30;32621,551;   -4,290;33713,566; 0,01430
 617,87;32571,719;   -6,250;33726,121; 0,01512
 618,45;32530,799;   -4,460;33630,449; 0,01444
 619,02;32574,297;   -5,730;33662,223; 0,01427
 619,60;32682,934;   -4,980;33846,770; 0,01519
 620,17;32564,719;   -3,950;33784,738; 0,01597
 620,75;32395,359;   -6,600;33645,953; 0,01645
 621,33;32524,027;   -3,960;33804,094; 0,01676
 621,90;32601,699;   -4,720;33869,941; 0,01657
 622,48;32592,613;   -6,510;33913,844; 0,01725
 623,05;32706,824;   -4,060;34100,281; 0,01812
 623,63;32783,289;   -6,170;34138,680; 0,01759
 624,20;33002,988;   -4,310;34360,914; 0,01751
 624,78;33115,656;   -4,040;34469,391; 0,01740
 625,35;33209,887;   -5,620;34523,895; 0,01685
 625,93;33420,676;   -4,100;34620,688; 0,01532
 626,50;33678,109;   -5,220;34859,051; 0,01497
 627,08;33901,344;   -4,380;35085,145; 0,01490
 627,66;33903,664;   -4,340;35115,031; 0,01524
 628,23;34107,266;   -5,570;35320,547; 0,01518
 628,81;34325,473;   -4,180;35584,832; 0,01565
 629,38;34490,164;   -4,870;35830,012; 0,01655
 629,96;34743,387;   -5,120;36103,207; 0,01667
 630,53;34993,313;   -3,840;36312,395; 0,01607
 631,11;35369,082;   -5,790;36585,129; 0,01468
 631,68;35698,988;   -3,830;36883,961; 0,01418
 632,26;35845,219;   -4,770;36984,973; 0,01359
 632,83;35987,500;   -6,570;37168,785; 0,01402
 633,40;36230,570;   -3,370;37429,043; 0,01413
 633,98;36377,926;   -5,940;37579,770; 0,01411
 634,55;36418,352;   -4,070;37613,477; 0,01402
 635,13;36636,945;   -4,150;37790,781; 0,01347
 635,70;36869,711;   -6,570;38036,090; 0,01352
 636,28;37029,852;   -4,370;38166,969; 0,01313
 636,85;37283,973;   -5,250;38399,809; 0,01281
 637,43;37380,027;   -5,520;38569,984; 0,01361
 638,00;37424,445;   -3,680;38656,527; 0,01407
 638,58;37592,684;   -5,860;38825,258; 0,01401
 639,15;37762,715;   -3,990;39006,434; 0,01407
 639,73;37840,469;   -4,400;39074,633; 0,01394
 640,30;37919,738;   -4,680;39151,938; 0,01389
 640,87;38016,730;   -3,870;39184,527; 0,01314
 641,45;37914,969;   -6,500;39080,559; 0,01315
 642,02;37889,422;   -4,100;39083,559; 0,01347
 642,60;37946,867;   -4,230;39152,445; 0,01358
 643,17;37967,793;   -5,420;39186,805; 0,01372
 643,74;38066,570;   -3,180;39306,273; 0,01392
 644,32;38278,793;   -5,540;39459,453; 0,01319
 644,89;38322,410;   -5,240;39502,215; 0,01317
 645,47;38301,316;   -4,360;39552,703; 0,01396
 646,04;38407,902;   -5,990;39672,434; 0,01407
 646,61;38407,797;   -3,860;39626,254; 0,01356
 647,19;38263,000;   -4,310;39608,230; 0,01500
 647,76;38234,887;   -5,380;39691,980; 0,01624
 648,34;38135,152;   -3,530;39664,840; 0,01708
 648,91;38143,176;   -6,390;39640,609; 0,01672
 649,48;38290,133;   -4,280;39710,809; 0,01582
 650,06;38386,129;   -4,200;39781,098; 0,01550
 650,63;38429,313;   -5,220;39836,277; 0,01561
 651,20;38665,828;   -4,210;40084,777; 0,01565
 651,78;38983,293;   -5,490;40316,586; 0,01460
 652,35;39264,551;   -4,820;40521,926; 0,01369
 652,92;39559,664;   -4,330;40847,156; 0,01391
 653,50;39828,309;   -5,820;41184,824; 0,01454
 654,07;39993,344;   -4,120;41398,824; 0,01500
 654,64;40627,750;   -6,010;42226,535; 0,01676
 655,22;45627,266;   -4,660;47813,324; 0,02032
 655,79;53374,992;   -3,620;56212,684; 0,02250
 656,36;44909,996;   -5,570;46836,262; 0,01824
 656,94;41635,844;   -4,150;43261,270; 0,01663
 657,51;41290,527;   -4,990;42910,629; 0,01671
 658,08;41383,453;   -5,890;42962,980; 0,01627
 658,66;41607,809;   -4,180;43155,680; 0,01586
 659,23;41847,055;   -5,280;43288,418; 0,01470
 659,80;41749,969;   -4,960;43250,828; 0,01534
 660,38;41759,414;   -4,230;43329,559; 0,01603
 660,95;41910,238;   -5,930;43564,957; 0,01681
 661,52;41914,195;   -4,040;43590,477; 0,01703
 662,09;41975,559;   -5,350;43649,457; 0,01698
 662,67;42199,984;   -4,180;43821,016; 0,01637
 663,24;42347,832;   -4,690;43888,684; 0,01552
 663,81;42293,125;   -5,900;43813,023; 0,01533
 664,39;42277,262;   -4,940;43890,461; 0,01626
 664,96;42301,406;   -4,600;43957,852; 0,01668
 665,53;42229,203;   -5,790;43903,441; 0,01688
 666,10;42273,180;   -4,420;43882,570; 0,01623
 666,68;42401,664;   -5,650;43913,750; 0,01522
 667,25;42390,617;   -3,600;43841,281; 0,01461
 667,82;42313,715;   -4,900;43812,020; 0,01511
 668,39;42449,930;   -5,390;43960,840; 0,01519
 668,96;42511,934;   -4,030;44025,977; 0,01520
 669,54;42433,852;   -6,050;43938,379; 0,01513
 670,11;42388,855;   -5,210;43908,816; 0,01530
 670,68;42403,922;   -4,180;43934,105; 0,01539
 671,25;42312,688;   -6,130;43886,285; 0,01586
 671,83;42272,012;   -4,330;43901,594; 0,01643
 672,40;42447,496;   -5,120;44041,113; 0,01600
 672,97;42461,051;   -4,860;44033,203; 0,01579
 673,54;42445,078;   -3,840;44056,711; 0,01618
 674,11;42667,125;   -5,530;44215,301; 0,01548
 674,69;42968,277;   -4,290;44391,453; 0,01415
 675,26;42980,516;   -5,340;44425,211; 0,01436
 675,83;42895,508;   -5,560;44331,398; 0,01430
 676,40;43056,566;   -3,900;44484,891; 0,01417
 676,97;43093,949;   -5,680;44466,117; 0,01361
 677,54;42973,594;   -4,570;44419,547; 0,01437
 678,12;43077,711;   -4,050;44533,148; 0,01443
 678,69;43127,125;   -5,770;44558,098; 0,01417
 679,26;42969,402;   -4,090;44447,195; 0,01468
 679,83;42954,547;   -5,640;44546,547; 0,01580
 680,40;43134,434;   -4,970;44760,824; 0,01607
 680,97;43172,898;   -3,770;44837,453; 0,01643
 681,55;43125,664;   -6,160;44769,504; 0,01624
 682,12;43276,598;   -3,880;44911,723; 0,01611
 682,69;43550,742;   -5,050;45099,484; 0,01517
 683,26;43609,320;   -5,640;45111,473; 0,01471
 683,83;43630,625;   -4,680;45176,211; 0,01512
 684,40;43837,000;   -6,160;45480,672; 0,01598
 684,97;43929,227;   -4,550;45540,070; 0,01564
 685,54;43883,500;   -4,810;45450,879; 0,01524
 686,12;43927,945;   -5,100;45523,258; 0,01549
 686,69;44155,270;   -4,580;45682,129; 0,01476
 687,26;44248,227;   -5,290;45765,367; 0,01464
 687,83;44281,051;   -4,510;45894,699; 0,01554
 688,40;44641,008;   -4,300;46287,637; 0,01573
 688,97;45029,523;   -6,200;46487,965; 0,01384
 689,54;45160,578;   -4,240;46448,277; 0,01221
 690,11;45244,184;   -5,040;46520,203; 0,01208
 690,68;45500,219;   -5,220;46794,516; 0,01218
 691,25;45528,285;   -3,450;46851,703; 0,01244
 691,82;45478,301;   -5,320;46733,691; 0,01182
 692,40;45599,863;   -4,730;47005,051; 0,01318
 692,97;45743,852;   -4,630;47201,703; 0,01362
 693,54;45597,215;   -5,290;47050,500; 0,01362
 694,11;45415,480;   -4,550;46891,750; 0,01389
 694,68;45418,496;   -5,420;46963,738; 0,01453
 695,25;45428,090;   -4,190;46914,809; 0,01398
 695,82;45235,016;   -4,430;46775,258; 0,01454
 696,39;45188,633;   -6,150;46747,270; 0,01473
 696,96;45390,297;   -4,350;46951,676; 0,01469
 697,53;45270,324;   -5,420;46814,797; 0,01457
 698,10;45117,418;   -4,290;46647,438; 0,01448
 698,67;45111,203;   -4,140;46753,895; 0,01553
 699,24;45239,238;   -5,950;46852,555; 0,01522
 699,81;45152,703;   -4,360;46623,223; 0,01392
 700,38;45024,559;   -4,650;46440,543; 0,01345
 700,95;45030,785;   -5,150;46450,844; 0,01348
 701,52;45049,520;   -4,050;46426,313; 0,01307
 702,09;44747,117;   -5,740;46168,152; 0,01358
 702,66;44453,512;   -4,020;46009,211; 0,01494
 703,23;44408,465;   -4,780;45999,590; 0,01529
 703,80;44451,250;   -5,590;45907,691; 0,01400
 704,37;44325,879;   -4,410;45708,918; 0,01334
 704,94;44279,453;   -4,930;45698,988; 0,01370
 705,51;44429,949;   -4,190;45905,098; 0,01418
 706,08;44430,582;   -3,930;45836,789; 0,01353
 706,65;44268,020;   -5,850;45611,945; 0,01299
 707,22;44230,973;   -4,510;45584,406; 0,01309
 707,79;44232,371;   -4,830;45660,547; 0,01380
 708,36;44079,023;   -4,570;45504,746; 0,01382
 708,93;43774,160;   -4,340;45274,883; 0,01464
 709,50;43807,484;   -5,570;45299,125; 0,01454
 710,06;44018,082;   -4,110;45407,484; 0,01350
 710,63;43931,746;   -4,020;45198,102; 0,01234
 711,20;43618,852;   -5,850;44921,992; 0,01278
 711,77;43579,418;   -3,570;44926,500; 0,01322
 712,34;43706,102;   -5,610;44986,941; 0,01254
 712,91;43667,137;   -4,400;44911,281; 0,01220
 713,48;43632,973;   -4,200;44910,109; 0,01253
 714,05;43724,059;   -5,980;45102,328; 0,01348
 714,62;43770,793;   -4,620;45085,508; 0,01285
 715,19;43523,559;   -5,130;44782,238; 0,01238
 715,76;43284,133;   -4,790;44596,875; 0,01297
 716,33;43328,020;   -4,340;44701,617; 0,01355
 716,89;43424,094;   -5,890;44753,336; 0,01309
 717,46;43326,879;   -4,240;44585,035; 0,01243
 718,03;43325,996;   -5,030;44520,375; 0,01181
 718,60;43504,801;   -4,910;44693,734; 0,01171
 719,17;43628,367;   -4,310;44775,863; 0,01127
 719,74;43489,313;   -5,810;44634,102; 0,01128
 720,31;43404,699;   -4,990;44611,461; 0,01191
 720,88;43508,371;   -4,640;44770,992; 0,01242
 721,44;43433,359;   -5,380;44782,961; 0,01329
 722,01;43290,465;   -4,640;44656,168; 0,01349
 722,58;43275,430;   -5,800;44688,008; 0,01395
 723,15;43495,375;   -4,880;44932,078; 0,01411
 723,72;43569,859;   -4,530;44924,457; 0,01330
 724,29;43311,375;   -5,990;44656,809; 0,01328
 724,85;43242,891;   -4,290;44618,418; 0,01360
 725,42;43484,734;   -4,660;44768,586; 0,01264
 725,99;43546,090;   -4,740;44888,344; 0,01318
 726,56;43405,305;   -4,060;44773,324; 0,01348
 727,13;43348,492;   -5,900;44728,145; 0,01361
 727,69;43605,457;   -4,420;44921,324; 0,01291
 728,26;43715,883;   -5,030;44960,863; 0,01219
 728,83;43494,770;   -5,820;44756,723; 0,01242
 729,40;43292,402;   -4,030;44593,773; 0,01286
 729,97;43444,359;   -5,730;44758,859; 0,01294
 730,53;43560,375;   -4,250;44798,461; 0,01217
 731,10;43409,410;   -3,790;44595,320; 0,01170
 731,67;43172,863;   -5,590;44531,309; 0,01345
 732,24;43244,781;   -4,300;44780,820; 0,01516
 732,81;43445,344;   -5,780;45016,137; 0,01542
 733,37;43484,301;   -4,930;45010,629; 0,01498
 733,94;43535,715;   -4,330;45043,945; 0,01479
 734,51;43737,711;   -5,420;45113,848; 0,01345
 735,08;43879,117;   -4,400;45187,977; 0,01276
 735,64;43823,453;   -4,910;45036,566; 0,01186
 736,21;43595,039;   -5,070;44870,313; 0,01252
 736,78;43620,113;   -4,880;44973,355; 0,01327
 737,35;43831,219;   -6,390;45219,055; 0,01354
 737,91;43871,445;   -4,080;45155,664; 0,01253
 738,48;43731,551;   -4,490;45033,762; 0,01274
 739,05;43765,754;   -5,350;45020,051; 0,01227
 739,61;43806,340;   -4,600;44980,719; 0,01149
 740,18;43680,004;   -5,600;44708,059; 0,01010
 740,75;43379,520;   -4,620;44432,090; 0,01041
 741,32;43218,426;   -4,280;44328,719; 0,01102
 741,88;43327,660;   -5,640;44408,680; 0,01070
 742,45;43307,777;   -3,900;44379,148; 0,01061
 743,02;42929,242;   -5,070;44134,105; 0,01202
 743,58;42676,297;   -5,630;43977,766; 0,01304
 744,15;42816,121;   -4,240;44108,547; 0,01291
 744,72;42959,047;   -6,180;44114,516; 0,01153
 745,28;42923,645;   -4,350;43939,516; 0,01016
 745,85;42796,527;   -4,910;43754,672; 0,00961
 746,42;42839,625;   -5,690;43875,164; 0,01037
 746,98;42915,879;   -3,840;43989,902; 0,01073
 747,55;42837,383;   -5,850;43852,242; 0,01017
 748,12;42567,672;   -4,270;43608,371; 0,01049
 748,68;42513,445;   -4,650;43644,801; 0,01140
 749,25;42650,301;   -5,470;43821,398; 0,01176
 749,82;42700,816;   -3,920;43793,238; 0,01097
 750,38;42454,262;   -5,780;43617,641; 0,01174
 750,95;42328,086;   -4,420;43542,969; 0,01229
 751,52;42441,254;   -4,020;43727,766; 0,01297
 752,08;42505,539;   -5,020;43775,969; 0,01279
 752,65;42370,074;   -3,530;43643,355; 0,01286
 753,21;42247,328;   -4,580;43571,484; 0,01340
 753,78;42410,082;   -4,810;43680,336; 0,01282
 754,35;42630,270;   -4,370;43714,695; 0,01091
 754,91;42608,434;   -5,860;43531,992; 0,00931
 755,48;42319,410;   -4,500;43269,844; 0,00964
 756,04;42152,297;   -4,000;43164,844; 0,01031
 756,61;42237,332;   -4,650;43272,242; 0,01051
 757,18;42260,625;   -4,160;43257,531; 0,01012
 757,74;42034,699;   -5,890;43008,641; 0,00995
 758,31;41789,496;   -4,660;42833,559; 0,01072
 758,87;41949,070;   -4,110;43051,840; 0,01127
 759,44;42157,867;   -5,480;43300,828; 0,01162
 760,00;42135,902;   -3,650;43224,090; 0,01107
 760,57;42050,816;   -4,820;43135,617; 0,01106
 761,14;41982,113;   -4,810;43084,277; 0,01125
 761,70;42043,910;   -4,590;43139,727; 0,01117
 762,27;41932,805;   -5,140;43069,125; 0,01161
 762,83;41702,039;   -4,410;42867,105; 0,01197
 763,40;41601,773;   -4,860;42876,336; 0,01310
 763,96;41753,039;   -4,710;43092,594; 0,01371
 764,53;41980,074;   -3,960;43247,293; 0,01291
 765,09;41733,480;   -4,860;42971,063; 0,01269
 765,66;41464,105;   -4,550;42641,211; 0,01216
 766,22;41451,141;   -4,170;42718,590; 0,01308
 766,79;41607,336;   -5,530;42920,512; 0,01349
 767,35;41742,023;   -4,060;43019,488; 0,01309
 767,92;41735,199;   -5,110;42938,711; 0,01235
 768,48;41778,555;   -4,960;43035,750; 0,01287
 769,05;41951,309;   -4,410;43189,520; 0,01263
 769,61;42104,332;   -5,630;43249,059; 0,01165
 770,18;42073,129;   -4,520;43151,426; 0,01099
 770,74;41964,633;   -4,340;43040,527; 0,01099
 771,31;41986,691;   -5,180;43067,074; 0,01103
 771,87;42077,574;   -4,460;43130,035; 0,01073
 772,44;42131,320;   -5,900;43146,305; 0,01034
 773,00;41986,727;   -4,520;42954,523; 0,00990
 773,57;41927,191;   -4,550;42919,402; 0,01016
 774,13;42074,488;   -5,560;43132,664; 0,01079
 774,70;42386,254;   -3,740;43480,652; 0,01107
 775,26;42443,387;   -5,570;43532,820; 0,01101
 775,82;42295,273;   -4,340;43474,180; 0,01194
 776,39;42304,949;   -4,110;43549,422; 0,01259
 776,95;42489,535;   -5,150;43779,379; 0,01299
 777,52;42635,219;   -4,150;43901,398; 0,01271
 778,08;42587,703;   -4,380;43836,879; 0,01255
 778,65;42396,570;   -4,830;43747,176; 0,01362
 779,21;42360,676;   -4,940;43733,059; 0,01385
 779,77;42436,898;   -5,360;43752,418; 0,01326
 780,34;42361,547;   -4,700;43678,484; 0,01329
 780,90;42144,242;   -4,380;43592,105; 0,01467
 781,47;41982,746;   -6,070;43546,316; 0,01588
 782,03;42063,371;   -3,450;43754,684; 0,01712
 782,59;42250,496;   -4,970;43978,102; 0,01740
 783,16;42300,801;   -4,210;44033,242; 0,01743
 783,72;42216,949;   -4,440;43914,473; 0,01712
 784,29;42129,504;   -5,050;43815,883; 0,01704
 784,85;42313,289;   -4,310;43826,129; 0,01525
 785,41;42517,395;   -5,480;43780,441; 0,01271
 785,98;42405,508;   -4,460;43422,410; 0,01029
 786,54;42178,293;   -3,350;43050,258; 0,00889
 787,10;41981,301;   -5,650;42904,738; 0,00945
 787,67;42016,945;   -3,740;43003,938; 0,01008
 788,23;41964,781;   -4,180;42988,676; 0,01047
 788,79;41725,176;   -4,760;42809,746; 0,01114
 789,36;41363,133;   -3,860;42592,086; 0,01271
 789,92;41393,508;   -5,930;42697,984; 0,01347
 790,48;41605,613;   -4,000;42887,863; 0,01318
 791,05;41707,176;   -4,690;42970,016; 0,01295
 791,61;41491,133;   -5,550;42778,563; 0,01327
 792,17;41296,109;   -4,670;42688,313; 0,01440
 792,74;41156,023;   -4,930;42685,344; 0,01584
 793,30;41220,539;   -4,550;42741,652; 0,01574
 793,86;41140,504;   -4,750;42549,820; 0,01463
 794,43;40834,508;   -5,750;42108,352; 0,01334
 794,99;40530,945;   -3,970;41816,480; 0,01356
 795,55;40455,590;   -5,170;41748,730; 0,01366
 796,11;40481,027;   -4,850;41787,078; 0,01379
 796,68;40471,070;   -3,920;41757,438; 0,01359
 797,24;40252,645;   -5,510;41567,977; 0,01396
 797,80;40097,133;   -3,660;41408,316; 0,01397
 798,36;40028,277;   -5,030;41373,914; 0,01436
 798,93;40095,242;   -5,030;41386,785; 0,01377
 799,49;39959,418;   -4,410;41233,816; 0,01363
 800,05;39710,512;   -5,200;40967,043; 0,01353
 800,61;39515,129;   -4,730;40795,965; 0,01385
 801,18;39495,914;   -3,810;40801,121; 0,01412
 801,74;39441,738;   -4,800;40736,980; 0,01403
 802,30;39259,594;   -3,250;40506,191; 0,01357
 802,86;38925,309;   -4,880;40151,000; 0,01346
 803,43;38630,695;   -4,670;39917,582; 0,01423
 803,99;38566,289;   -3,660;39878,941; 0,01453
 804,55;38701,348;   -5,800;39891,219; 0,01315
 805,11;38635,910;   -4,200;39689,000; 0,01168
 805,68;38541,047;   -4,770;39396,309; 0,00953
 806,24;38392,453;   -5,180;39209,578; 0,00915
 806,80;38335,477;   -3,540;39183,098; 0,00950
 807,36;38359,082;   -5,300;39288,406; 0,01039
 807,92;38204,859;   -3,720;39260,605; 0,01184
 808,48;37936,055;   -4,840;39107,234; 0,01320
 809,05;37751,789;   -5,220;39018,664; 0,01433
 809,61;37834,406;   -4,430;39107,113; 0,01437
 810,17;38007,008;   -4,740;39234,063; 0,01380
 810,73;38002,605;   -4,960;39195,570; 0,01342
 811,29;37867,441;   -3,780;39030,641; 0,01314
 811,85;37733,586;   -6,000;38846,512; 0,01262
 812,42;37763,180;   -4,540;38865,512; 0,01249
 812,98;37818,715;   -5,330;38977,961; 0,01311
 813,54;37725,473;   -4,720;38961,059; 0,01399
 814,10;37379,945;   -4,060;38607,578; 0,01403
 814,66;37103,324;   -5,660;38285,156; 0,01362
 815,22;36987,770;   -4,660;38106,566; 0,01294
 815,78;37107,441;   -4,540;38169,316; 0,01225
 816,35;37209,188;   -4,930;38224,016; 0,01168
 816,91;37134,734;   -3,780;38150,656; 0,01172
 817,47;36953,719;   -5,080;37956,656; 0,01163
 818,03;36968,004;   -4,650;37995,605; 0,01191
 818,59;37129,340;   -4,300;38138,715; 0,01165
 819,15;37328,676;   -5,250;38306,734; 0,01123
 819,71;37311,629;   -3,600;38274,773; 0,01107
 820,27;37258,438;   -5,020;38224,891; 0,01112
 820,83;37322,531;   -4,680;38347,723; 0,01177
 821,39;37440,105;   -3,680;38474,922; 0,01184
 821,96;37679,883;   -5,390;38640,898; 0,01094
 822,52;37811,316;   -4,030;38713,438; 0,01024
 823,08;37747,031;   -4,860;38651,227; 0,01028
 823,64;37759,547;   -5,060;38749,656; 0,01124
 824,20;37884,402;   -4,200;38923,387; 0,01175
 824,76;38214,617;   -5,780;39229,766; 0,01138
 825,32;38396,133;   -4,450;39467,445; 0,01195
 825,88;38339,711;   -4,040;39384,035; 0,01167
 826,44;38173,324;   -5,220;39278,074; 0,01239
 827,00;38286,922;   -4,320;39389,234; 0,01233
 827,56;38507,395;   -5,520;39548,945; 0,01159
 828,12;38688,109;   -4,540;39686,582; 0,01106
 828,68;38594,566;   -4,400;39663,941; 0,01187
 829,24;38433,781;   -5,330;39617,910; 0,01318
 829,80;38438,066;   -4,120;39720,539; 0,01425
 830,36;38545,094;   -4,620;39912,660; 0,01514
 830,92;38748,316;   -4,990;40081,320; 0,01469
 831,48;38836,883;   -4,050;40070,328; 0,01358
 832,04;38711,809;   -4,900;39870,527; 0,01281
 832,60;38569,754;   -3,970;39690,188; 0,01244
 833,16;38544,168;   -4,740;39708,246; 0,01292
 833,72;38582,215;   -4,780;39721,707; 0,01264
 834,28;38543,441;   -4,320;39707,277; 0,01292
 834,84;38344,355;   -5,550;39449,066; 0,01233
 835,40;38123,492;   -4,230;39225,746; 0,01238
 835,96;38144,734;   -4,040;39271,973; 0,01265
 836,52;38260,570;   -4,780;39429,785; 0,01307
 837,08;38320,168;   -4,010;39423,871; 0,01233
 837,64;38256,473;   -4,700;39258,332; 0,01123
 838,20;38077,496;   -4,360;39008,582; 0,01049
 838,76;37964,875;   -4,520;38867,012; 0,01020
 839,32;37976,578;   -5,920;38930,621; 0,01077
 839,88;38076,824;   -3,720;39094,730; 0,01146
 840,43;38114,090;   -4,530;39116,480; 0,01127
 840,99;37999,414;   -4,270;39076,039; 0,01213
 841,55;37795,141;   -3,390;38930,887; 0,01286
 842,11;37791,625;   -5,590;38981,086; 0,01346
 842,67;37940,191;   -4,340;39091,066; 0,01298
 843,23;37964,957;   -4,600;39027,117; 0,01198
 843,79;37828,531;   -5,320;38792,895; 0,01093
 844,35;37629,465;   -3,660;38551,383; 0,01051
 844,91;37432,992;   -5,490;38348,883; 0,01050
 845,47;37403,957;   -4,670;38280,555; 0,01006
 846,03;37486,961;   -3,620;38267,805; 0,00895
 846,58;37474,000;   -5,330;38180,852; 0,00811
 847,14;37371,492;   -4,360;38056,602; 0,00789
 847,70;37244,008;   -5,100;37903,430; 0,00762
 848,26;37035,996;   -4,510;37788,559; 0,00874
 848,82;37040,039;   -4,580;37885,301; 0,00980
 849,38;36982,254;   -5,620;37883,148; 0,01045
 849,94;36897,750;   -4,100;37756,637; 0,00999
 850,49;36816,586;   -4,500;37578,707; 0,00890
 851,05;36810,730;   -4,960;37537,066; 0,00848
 851,61;36915,727;   -4,350;37672,648; 0,00881
 852,17;37020,871;   -5,580;37858,066; 0,00971
 852,73;37068,539;   -4,530;37982,797; 0,01058
 853,29;36896,922;   -3,860;37843,137; 0,01100
 853,84;36523,477;   -5,630;37515,586; 0,01164
 854,40;36400,352;   -4,110;37405,395; 0,01183
 854,96;36325,797;   -5,260;37315,902; 0,01168
 855,52;36334,332;   -4,500;37316,402; 0,01158
 856,08;36305,570;   -4,570;37216,492; 0,01076
 856,63;36139,574;   -6,080;36964,410; 0,00980
 857,19;35935,719;   -4,570;36703,082; 0,00918
 857,75;35843,875;   -5,340;36666,941; 0,00986
 858,31;35775,141;   -5,220;36707,789; 0,01118
 858,86;35841,137;   -3,950;36879,777; 0,01241
 859,42;35802,910;   -4,950;36909,738; 0,01322
 859,98;35751,828;   -4,320;36842,648; 0,01305
 860,54;35597,043;   -4,540;36659,527; 0,01277
 861,10;35586,707;   -5,190;36584,188; 0,01200
 861,65;35749,254;   -4,120;36694,656; 0,01133
 862,21;35777,168;   -5,220;36660,086; 0,01059
 862,77;35650,914;   -4,290;36490,355; 0,01011
 863,32;35485,738;   -4,010;36334,434; 0,01026
 863,88;35313,105;   -4,960;36207,242; 0,01086
 864,44;35288,891;   -4,350;36195,191; 0,01101
 865,00;35438,195;   -4,890;36338,383; 0,01089
 865,55;35591,180;   -4,530;36454,859; 0,01041
 866,11;35672,945;   -4,170;36525,090; 0,01025
 866,67;35664,730;   -5,100;36497,379; 0,01002
 867,23;35735,988;   -4,070;36520,129; 0,00943
 867,78;36047,242;   -4,120;36745,898; 0,00834
 868,34;36257,828;   -4,920;36975,590; 0,00851
 868,90;36399,895;   -4,560;37163,855; 0,00902
 869,45;36480,340;   -5,330;37254,168; 0,00911
 870,01;36412,922;   -4,260;37184,188; 0,00910
 870,57;36557,309;   -4,680;37402,746; 0,00993
 871,12;36735,105;   -5,410;37642,445; 0,01059
 871,68;36792,391;   -3,800;37792,324; 0,01164
 872,24;36872,754;   -5,060;37797,984; 0,01076
 872,79;36825,672;   -5,420;37734,371; 0,01058
 873,35;36606,414;   -3,690;37482,363; 0,01027
 873,91;36424,000;   -5,580;37297,863; 0,01029
 874,46;36403,266;   -4,440;37222,730; 0,00967
 875,02;36376,211;   -5,110;37153,211; 0,00918
 875,57;36319,285;   -5,400;37063,281; 0,00881
 876,13;36131,730;   -4,270;36803,148; 0,00800
 876,69;35900,219;   -5,490;36535,637; 0,00762
 877,24;35511,523;   -3,930;36158,168; 0,00784
 877,80;35330,289;   -4,640;36014,527; 0,00833
 878,36;35265,363;   -5,170;35959,996; 0,00847
 878,91;35183,719;   -4,460;35862,516; 0,00830
 879,47;34940,496;   -4,690;35600,934; 0,00813
 880,02;34598,328;   -4,900;35271,266; 0,00836
 880,58;34226,414;   -4,280;34976,945; 0,00942
 881,14;34003,191;   -5,440;34835,012; 0,01049
 881,69;33868,297;   -3,970;34780,094; 0,01154
 882,25;33731,203;   -4,390;34664,441; 0,01185
 882,80;33557,168;   -4,610;34477,441; 0,01175
 883,36;33382,660;   -3,790;34282,492; 0,01155
 883,91;33288,676;   -5,750;34118,742; 0,01069
 884,47;33266,133;   -4,030;34084,180; 0,01055
 885,03;33296,117;   -4,410;34102,770; 0,01039
 885,58;33360,984;   -5,340;34129,238; 0,00989
 886,14;33277,129;   -4,480;34001,578; 0,00935
 886,69;33068,992;   -5,200;33810,406; 0,00963
 887,25;32854,590;   -3,760;33608,816; 0,00986
 887,80;32734,834;   -5,290;33492,945; 0,00994
 888,36;32841,531;   -5,510;33571,457; 0,00955
 888,91;32773,535;   -4,120;33467,977; 0,00911
 889,47;32618,051;   -5,000;33339,934; 0,00951
 890,02;32434,887;   -4,090;33163,242; 0,00964
 890,58;32267,063;   -4,300;33032,832; 0,01019
 891,13;32099,477;   -5,170;32901,523; 0,01072
 891,69;32089,473;   -4,250;32918,184; 0,01107
 892,24;32037,408;   -4,310;32904,180; 0,01159
 892,80;32025,174;   -5,000;32888,629; 0,01155
 893,35;31929,668;   -4,080;32761,551; 0,01117
 893,91;31821,055;   -5,720;32620,330; 0,01077
 894,46;31815,148;   -4,570;32561,859; 0,01007
 895,02;31887,584;   -4,130;32582,219; 0,00936
 895,57;31941,721;   -5,660;32614,008; 0,00904
 896,13;31945,314;   -4,610;32597,178; 0,00877
 896,68;31740,721;   -4,620;32444,516; 0,00952
 897,23;31408,396;   -4,980;32142,375; 0,01003
 897,79;31192,941;   -4,610;31984,695; 0,01088
 898,34;30974,477;   -5,650;31850,754; 0,01211
 898,90;31003,793;   -4,320;31925,283; 0,01272
 899,45;31017,658;   -5,500;31927,053; 0,01255
 900,01;30902,133;   -4,140;31785,332; 0,01224
 900,56;30710,518;   -3,550;31589,631; 0,01226
 901,11;30482,643;   -5,510;31348,570; 0,01216
 901,67;30366,459;   -4,410;31196,861; 0,01172
 902,22;30420,555;   -4,190;31177,561; 0,01067
 902,78;30378,439;   -4,830;31050,309; 0,00950
 903,33;30197,084;   -4,190;30847,609; 0,00926
 903,89;29998,590;   -5,500;30634,168; 0,00910
 904,44;29784,326;   -4,230;30420,217; 0,00917
 904,99;29605,551;   -4,000;30226,736; 0,00902
 905,55;29498,777;   -5,930;30092,195; 0,00865
 906,10;29523,742;   -4,430;30087,746; 0,00822
 906,65;29452,338;   -4,730;30120,855; 0,00975
 907,21;29283,863;   -5,170;30012,854; 0,01068
 907,76;29029,508;   -4,810;29810,984; 0,01153
 908,31;28847,514;   -5,540;29719,293; 0,01293
 908,87;28717,068;   -4,220;29663,463; 0,01408
 909,42;28715,305;   -3,690;29647,473; 0,01387
 909,97;28635,109;   -5,040;29572,311; 0,01398
 910,53;28572,775;   -4,190;29495,490; 0,01380
 911,08;28341,740;   -5,690;29214,279; 0,01317
 911,63;28125,811;   -3,770;28955,109; 0,01262
 912,19;27922,580;   -4,290;28735,680; 0,01246
 912,74;27871,949;   -5,150;28699,830; 0,01271
 913,29;27887,189;   -4,660;28721,289; 0,01280
 913,85;27812,711;   -5,020;28645,160; 0,01281
 914,40;27761,840;   -4,070;28581,270; 0,01263
 914,95;27571,660;   -4,650;28348,830; 0,01207
 915,51;27424,090;   -5,670;28200,381; 0,01212
 916,06;27305,189;   -4,280;28092,461; 0,01234
 916,61;27331,230;   -4,750;28121,199; 0,01237
 917,16;27363,660;   -4,520;28081,961; 0,01125
 917,72;27321,670;   -3,970;28049,000; 0,01141
 918,27;27185,250;   -5,550;27891,930; 0,01114
 918,82;26965,430;   -3,980;27662,609; 0,01108
 919,37;26798,199;   -4,650;27501,740; 0,01125
 919,93;26761,891;   -5,010;27419,330; 0,01054
 920,48;26657,980;   -3,750;27270,820; 0,00987
 921,03;26619,711;   -5,520;27171,270; 0,00890
 921,58;26432,010;   -3,900;26943,900; 0,00833
 922,14;26173,631;   -4,050;26615,811; 0,00727
 922,69;25922,689;   -5,640;26354,180; 0,00717
 923,24;25721,641;   -4,400;26127,160; 0,00679
 923,79;25589,779;   -4,740;25985,500; 0,00666
 924,35;25513,891;   -3,920;25857,740; 0,00581
 924,90;25518,840;   -4,090;25741,939; 0,00378
 925,45;25333,400;   -5,270;25454,740; 0,00207
 926,00;25145,570;   -3,280;25201,510; 0,00096
 926,55;24969,029;   -4,530;24949,189;-0,00035
 927,11;24876,289;   -5,800;24842,939;-0,00058
 927,66;24797,029;   -4,160;24811,561; 0,00025
 928,21;24676,561;   -5,290;24734,730; 0,00102
 928,76;24558,551;   -4,040;24691,910; 0,00235
 929,31;24286,160;   -4,140;24489,131; 0,00361
 929,86;23946,820;   -5,200;24238,141; 0,00525
 930,42;23709,480;   -3,790;24020,039; 0,00565
 930,97;23536,750;   -5,790;23847,570; 0,00570
 931,52;23474,350;   -4,480;23746,510; 0,00501
 932,07;23402,029;   -3,170;23652,949; 0,00463
 932,62;23331,211;   -5,580;23530,000; 0,00368
 933,17;23150,061;   -4,110;23323,000; 0,00323
 933,72;22927,770;   -4,590;23095,580; 0,00317
 934,28;22662,619;   -4,300;22848,529; 0,00355
 934,83;22497,660;   -3,710;22753,260; 0,00491
 935,38;22371,811;   -6,010;22663,721; 0,00563
 935,93;22298,740;   -4,180;22594,131; 0,00571
 936,48;22199,301;   -4,720;22472,600; 0,00531
 937,03;21996,221;   -5,110;22235,080; 0,00469
 937,58;21801,090;   -4,100;22003,100; 0,00400
 938,13;21632,109;   -5,240;21832,520; 0,00400
 938,68;21509,920;   -3,990;21712,061; 0,00406
 939,23;21425,010;   -3,880;21652,869; 0,00459
 939,79;21320,150;   -5,040;21531,080; 0,00427
 940,34;21207,080;   -4,280;21370,670; 0,00334
 940,89;21011,609;   -4,740;21143,570; 0,00272
 941,44;20795,900;   -4,380;20937,859; 0,00295
 941,99;20574,221;   -3,940;20713,020; 0,00292
 942,54;20364,449;   -5,480;20553,510; 0,00401
 943,09;20308,600;   -3,880;20518,150; 0,00446
 943,64;20179,039;   -5,090;20428,580; 0,00534
 944,19;19994,260;   -5,340;20244,400; 0,00540
 944,74;19717,529;   -3,710;19990,340; 0,00597
 945,29;19407,080;   -5,160;19701,869; 0,00655
 945,84;19174,699;   -4,400;19478,080; 0,00682
 946,39;18972,420;   -4,460;19328,900; 0,00808
 946,94;18787,680;   -5,410;19144,580; 0,00817
 947,49;18630,250;   -4,180;18995,801; 0,00844
 948,04;18451,020;   -4,610;18751,000; 0,00700
 948,59;18260,721;   -4,750;18516,260; 0,00603
 949,14;17984,461;   -4,850;18202,529; 0,00523
 949,69;17709,539;   -5,620;17879,500; 0,00415
 950,24;17487,430;   -3,790;17604,930; 0,00291
 950,79;17349,971;   -4,710;17388,359; 0,00096
 951,34;17221,180;   -4,520;17211,881;-0,00023
 951,89;17016,891;   -4,340;16947,631;-0,00177
 952,44;16798,641;   -5,480;16685,730;-0,00293
 952,99;16547,150;   -3,460;16423,381;-0,00326
 953,54;16292,220;   -4,130;16107,550;-0,00495
 954,09;16108,120;   -4,900;15947,700;-0,00435
 954,64;15915,040;   -4,360;15787,590;-0,00349
 955,19;15720,170;   -4,960;15627,850;-0,00256
 955,74;15519,690;   -3,830;15432,850;-0,00244
 956,28;15293,420;   -3,900;15220,770;-0,00207
 956,83;15076,990;   -4,570;15025,940;-0,00147
 957,38;14870,310;   -3,590;14838,800;-0,00092
 957,93;14728,210;   -4,570;14724,150;-0,00012
 958,48;14619,180;   -4,100;14665,350; 0,00137
 959,03;14531,440;   -3,640;14608,060; 0,00228
 959,58;14421,740;   -5,480;14492,230; 0,00212
 960,13;14273,820;   -3,420;14365,100; 0,00277
 960,68;14159,710;   -5,120;14249,030; 0,00273
 961,23;14004,820;   -4,390;14114,410; 0,00338
 961,77;13841,320;   -3,440;13983,050; 0,00442
 962,32;13744,180;   -5,450;13885,620; 0,00444
 962,87;13643,610;   -3,920;13808,710; 0,00522
 963,42;13556,610;   -3,800;13727,660; 0,00544
 963,97;13496,520;   -5,350;13657,580; 0,00515
 964,52;13374,690;   -4,310;13525,830; 0,00488
 965,07;13210,440;   -5,340;13368,940; 0,00518
 965,61;13058,450;   -4,500;13241,890; 0,00606
 966,16;12948,240;   -3,930;13124,990; 0,00589
 966,71;12863,260;   -5,570;13012,530; 0,00501
 967,26;12792,530;   -3,900;12932,280; 0,00472
 967,81;12710,890;   -4,880;12794,580; 0,00285
 968,36;12620,490;   -4,750;12663,010; 0,00146
 968,90;12479,360;   -3,700;12517,710; 0,00133
 969,45;12351,170;   -5,280;12380,350; 0,00102
 970,00;12217,130;   -4,240;12262,050; 0,00159
 970,55;12127,340;   -4,080;12179,800; 0,00187
 971,10;12068,910;   -4,430;12116,430; 0,00171
 971,64;12006,130;   -3,970;12057,160; 0,00184
 972,19;11936,170;   -4,840;11996,610; 0,00219
 972,74;11850,740;   -4,180;11908,770; 0,00212
 973,29;11709,600;   -3,310;11789,950; 0,00297
 973,84;11590,470;   -5,270;11723,120; 0,00494
 974,38;11519,780;   -4,280;11669,420; 0,00560
 974,93;11484,250;   -4,310;11642,110; 0,00593
 975,48;11458,360;   -4,660;11622,220; 0,00616
 976,03;11412,530;   -3,850;11562,770; 0,00568
 976,57;11288,770;   -4,910;11416,090; 0,00487
 977,12;11163,880;   -3,680;11257,500; 0,00363
 977,67;11012,100;   -4,510;11104,460; 0,00363
 978,21;10891,030;   -4,880;10977,750; 0,00344
 978,76;10776,110;   -4,210;10862,820; 0,00348
 979,31;10713,310;   -4,990;10802,560; 0,00360
 979,86;10650,410;   -4,870;10733,010; 0,00335
 980,40;10611,380;   -3,780;10699,350; 0,00358
 980,95;10514,270;   -5,350;10593,600; 0,00326
 981,50;10444,210;   -3,940;10520,320; 0,00315
 982,04;10370,370;   -5,130;10436,190; 0,00275
 982,59;10320,520;   -3,910;10381,160; 0,00254
 983,14;10295,120;   -4,120;10342,720; 0,00200
 983,68;10274,290;   -5,830;10300,750; 0,00112
 984,23;10260,160;   -3,910;10266,360; 0,00026
 984,78;10220,240;   -4,280;10226,470; 0,00026
 985,32;10138,750;   -4,320;10140,000; 0,00005
 985,87;10048,770;   -3,890;10071,630; 0,00099
 986,42; 9936,230;   -5,600; 9977,930; 0,00182
 986,96; 9858,620;   -4,570; 9921,120; 0,00274
 987,51; 9835,290;   -4,760; 9874,890; 0,00174
 988,06; 9775,390;   -4,790; 9810,200; 0,00154
 988,60; 9695,240;   -4,120; 9719,710; 0,00109
 989,15; 9614,880;   -4,600; 9652,510; 0,00170
 989,70; 9522,710;   -4,040; 9563,750; 0,00187
 990,24; 9395,870;   -4,030; 9430,500; 0,00160
 990,79; 9256,670;   -5,130; 9312,700; 0,00262
 991,33; 9176,030;   -4,770; 9226,600; 0,00239
 991,88; 9130,800;   -4,850; 9177,520; 0,00222
 992,43; 9110,140;   -4,530; 9132,280; 0,00105
 992,97; 9082,430;   -3,990; 9072,760;-0,00046
 993,52; 9006,520;   -4,940; 8971,290;-0,00170
 994,06; 8931,630;   -3,860; 8875,060;-0,00276
 994,61; 8855,860;   -4,220; 8780,240;-0,00372
 995,16; 8778,980;   -4,440; 8721,680;-0,00284
 995,70; 8725,420;   -3,890; 8661,180;-0,00321
 996,25; 8715,830;   -5,460; 8647,440;-0,00342
 996,79; 8692,980;   -4,010; 8634,880;-0,00291
 997,34; 8657,590;   -3,800; 8603,850;-0,00270
 997,88; 8616,930;   -4,800; 8566,220;-0,00256
 998,43; 8560,420;   -3,680; 8499,480;-0,00310
 998,97; 8483,030;   -4,770; 8419,500;-0,00326
 999,52; 8415,760;   -5,140; 8353,230;-0,00324
1000,06; 8357,020;   -3,880; 8296,500;-0,00316
1000,61; 8317,280;   -5,580; 8274,960;-0,00221
1001,15; 8287,340;   -3,870; 8240,260;-0,00247
1001,70; 8242,070;   -4,480; 8186,600;-0,00293
1002,24; 8182,180;   -4,730; 8111,070;-0,00379
1002,79; 8093,340;   -3,840; 8027,730;-0,00353
1003,33; 7985,180;   -5,170; 7938,970;-0,00252
1003,88; 7892,690;   -4,010; 7890,180;-0,00014
1004,42; 7843,800;   -4,140; 7838,240;-0,00031
1004,97; 7765,750;   -4,930; 7788,110; 0,00125
1005,51; 7702,410;   -3,720; 7743,680; 0,00232
1006,06; 7627,830;   -4,960; 7684,370; 0,00321
1006,60; 7561,870;   -3,890; 7618,230; 0,00322
1007,15; 7487,250;   -4,120; 7544,180; 0,00329
1007,69; 7422,880;   -5,130; 7490,870; 0,00396
1008,24; 7362,760;   -3,500; 7422,650; 0,00352
1008,78; 7323,720;   -4,430; 7389,340; 0,00387
1009,33; 7281,870;   -4,130; 7350,830; 0,00409
1009,87; 7259,320;   -4,660; 7327,530; 0,00406
1010,41; 7225,140;   -5,450; 7294,210; 0,00413
1010,96; 7163,560;   -3,650; 7239,370; 0,00457
1011,50; 7099,240;   -4,610; 7181,630; 0,00501
1012,05; 7039,120;   -4,640; 7118,770; 0,00488
1012,59; 6983,710;   -3,530; 7062,170; 0,00485
1013,13; 6934,560;   -5,390; 7007,280; 0,00453
1013,68; 6908,300;   -4,140; 6973,260; 0,00406
1014,22; 6881,930;   -4,620; 6936,690; 0,00344
1014,77; 6855,980;   -5,110; 6911,150; 0,00348
1015,31; 6812,520;   -3,800; 6873,530; 0,00387
1015,85; 6756,570;   -4,950; 6822,950; 0,00424
1016,40; 6685,770;   -4,760; 6766,320; 0,00520
1016,94; 6616,270;   -4,080; 6712,380; 0,00626
1017,48; 6566,640;   -5,310; 6690,510; 0,00811
1018,03; 6541,990;   -3,570; 6653,180; 0,00732
1018,57; 6518,630;   -4,790; 6622,100; 0,00683
1019,11; 6487,330;   -4,950; 6574,390; 0,00579
1019,66; 6454,930;   -3,740; 6520,850; 0,00441
1020,20; 6398,590;   -5,820; 6454,690; 0,00379
1020,74; 6320,530;   -4,550; 6370,180; 0,00340
1021,29; 6253,650;   -4,180; 6312,320; 0,00405
1021,83; 6182,560;   -4,970; 6253,340; 0,00494
1022,37; 6130,550;   -3,790; 6195,250; 0,00456
1022,92; 6092,480;   -5,190; 6157,300; 0,00459
1023,46; 6059,680;   -4,040; 6106,750; 0,00336
1024,00; 6006,710;   -4,280; 6052,410; 0,00329
1024,55; 5948,200;   -5,530; 5987,500; 0,00286
1025,09; 5894,820;   -3,150; 5937,720; 0,00315
1025,63; 5839,210;   -4,590; 5884,760; 0,00337
1026,17; 5770,190;   -4,470; 5822,410; 0,00391
1026,72; 5722,580;   -3,660; 5773,680; 0,00386
1027,26; 5702,720;   -5,330; 5759,420; 0,00429
1027,80; 5662,950;   -3,420; 5730,860; 0,00517
1028,35; 5615,460;   -5,270; 5701,320; 0,00658
1028,89; 5587,930;   -5,000; 5660,900; 0,00563
1029,43; 5545,160;   -4,110; 5617,530; 0,00563
1029,97; 5495,360;   -4,450; 5566,670; 0,00559
1030,52; 5440,000;   -4,520; 5514,780; 0,00592
1031,06; 5389,600;   -3,350; 5485,560; 0,00766
1031,60; 5335,780;   -4,860; 5430,060; 0,00760
1032,14; 5293,330;   -4,020; 5394,680; 0,00823
1032,68; 5240,270;   -4,850; 5361,300; 0,00991
1033,23; 5180,020;   -4,790; 5288,810; 0,00902
1033,77; 5121,780;   -4,840; 5222,130; 0,00842
1034,31; 5045,350;   -5,170; 5126,870; 0,00695
1034,85; 4968,540;   -3,610; 5040,150; 0,00621
1035,39; 4886,900;   -4,560; 4960,940; 0,00652
1035,94; 4819,140;   -4,660; 4888,580; 0,00621
1036,48; 4770,810;   -3,910; 4842,920; 0,00651
1037,02; 4704,990;   -4,900; 4781,210; 0,00697
1037,56; 4640,340;   -3,660; 4721,230; 0,00750
1038,10; 4583,380;   -4,400; 4651,920; 0,00644
1038,64; 4518,190;   -5,090; 4575,400; 0,00546
1039,19; 4456,780;   -3,720; 4511,040; 0,00525
1039,73; 4389,960;   -4,850; 4434,890; 0,00442
1040,27; 4327,610;   -4,480; 4372,810; 0,00451
1040,81; 4270,610;   -4,440; 4319,660; 0,00495
1041,35; 4224,860;   -5,480; 4272,220; 0,00484
1041,89; 4181,000;   -3,690; 4219,110; 0,00394
1042,43; 4131,920;   -5,000; 4169,110; 0,00389
1042,97; 4070,120;   -4,630; 4119,620; 0,00524
1043,52; 4014,120;   -3,910; 4060,000; 0,00493
1044,06; 3948,950;   -5,190; 3984,500; 0,00389
1044,60; 3896,680;   -4,720; 3926,570; 0,00331
1045,14; 3820,340;   -4,140; 3880,210; 0,00675
1045,68; 3768,460;   -5,290; 3822,130; 0,00613
1046,22; 3734,600;   -3,620; 3784,180; 0,00572
1046,76; 3681,950;   -4,790; 3737,080; 0,00645
1047,30; 3622,680;   -4,250; 3689,970; 0,00798
1047,84; 3574,470;   -4,250; 3624,250; 0,00600
1048,38; 3510,450;   -5,120; 3568,140; 0,00707
1048,92; 3459,670;   -4,300; 3509,530; 0,00621
1049,46; 3402,010;   -4,770; 3456,670; 0,00691
1050,00; 3352,660;   -4,210; 3412,450; 0,00767
1050,55; 3312,680;   -4,040; 3372,480; 0,00776
1051,09; 3266,630;   -5,440; 3325,460; 0,00774
1051,63; 3225,970;   -4,740; 3284,560; 0,00781
1052,17; 3187,720;   -4,640; 3243,940; 0,00758
1052,71; 3142,000;   -5,230; 3194,160; 0,00714
1053,25; 3095,790;   -4,280; 3144,530; 0,00677
1053,79; 3036,130;   -4,450; 3086,030; 0,00707
1054,33; 2990,440;   -4,350; 3029,710; 0,00566
1054,87; 2936,860;   -4,050; 2983,360; 0,00681
1055,41; 2889,550;   -5,180; 2943,960; 0,00809
1055,95; 2841,380;   -3,490; 2888,870; 0,00719
1056,49; 2796,370;   -4,900; 2852,440; 0,00861
1057,03; 2758,380;   -4,390; 2809,320; 0,00793
1057,57; 2720,400;   -4,180; 2764,880; 0,00703
1058,11; 2684,880;   -4,980; 2722,100; 0,00597
1058,64; 2643,140;   -3,250; 2679,390; 0,00591
1059,18; 2606,890;   -4,780; 2637,800; 0,00511
1059,72; 2574,830;   -4,450; 2605,280; 0,00510
1060,26; 2539,630;   -3,370; 2571,570; 0,00542
1060,80; 2510,290;   -5,500; 2546,510; 0,00621
1061,34; 2481,930;   -3,960; 2524,370; 0,00735
1061,88; 2457,670;   -3,520; 2490,380; 0,00573
1062,42; 2427,370;   -4,380; 2469,430; 0,00745
1062,96; 2395,710;   -4,110; 2434,410; 0,00695
1063,50; 2362,810;   -5,650; 2401,510; 0,00704
1064,04; 2331,050;   -4,180; 2368,990; 0,00700
1064,58; 2305,910;   -4,330; 2345,320; 0,00735
1065,12; 2283,050;   -4,940; 2316,780; 0,00636
1065,65; 2249,800;   -3,420; 2295,950; 0,00881
1066,19; 2226,440;   -4,790; 2264,790; 0,00740
1066,73; 2193,940;   -4,760; 2242,590; 0,00950
1067,27; 2170,470;   -4,100; 2203,600; 0,00657
1067,81; 2136,080;   -4,590; 2175,330; 0,00789
1068,35; 2103,780;   -3,730; 2142,590; 0,00792
1068,89; 2073,240;   -4,870; 2109,800; 0,00757
1069,43; 2044,240;   -4,460; 2083,900; 0,00833
1069,96; 2014,170;   -3,930; 2055,880; 0,00888
1070,50; 1999,530;   -4,530; 2032,320; 0,00705
1071,04; 1971,630;   -3,750; 2005,850; 0,00746
1071,58; 1951,970;   -4,060; 1986,250; 0,00755
1072,12; 1916,500;   -5,030; 1962,230; 0,01021
1072,66; 1893,400;   -2,940; 1933,470; 0,00908
1073,19; 1864,940;   -5,130; 1903,900; 0,00895
1073,73; 1833,880;   -4,740; 1873,820; 0,00933
1074,27; 1806,240;   -3,960; 1847,870; 0,00987
1074,81; 1786,170;   -4,740; 1819,760; 0,00807
1075,35; 1757,680;   -4,490; 1793,710; 0,00879
1075,88; 1737,110;   -4,880; 1773,490; 0,00898
1076,42; 1713,500;   -4,100; 1754,730; 0,01030
1076,96; 1693,240;   -3,970; 1732,540; 0,00994
1077,50; 1671,580;   -5,200; 1707,370; 0,00917
1078,04; 1649,350;   -4,150; 1682,070; 0,00851
1078,57; 1629,120;   -4,670; 1658,480; 0,00774
1079,11; 1603,580;   -5,360; 1641,060; 0,01000
1079,65; 1581,080;   -3,280; 1615,990; 0,00947
1080,19; 1563,330;   -5,700; 1594,990; 0,00868
1080,72; 1542,030;   -4,300; 1574,590; 0,00905
1081,26; 1519,960;   -4,130; 1555,990; 0,01015
1081,80; 1500,910;   -5,040; 1536,310; 0,01009
1082,33; 1480,410;   -4,540; 1517,330; 0,01067
1082,87; 1463,940;   -4,970; 1498,650; 0,01014
1083,41; 1437,800;   -4,350; 1473,650; 0,01066
1083,95; 1417,630;   -4,340; 1449,310; 0,00957
1084,48; 1393,920;   -5,020; 1427,430; 0,01028
1085,02; 1371,210;   -3,890; 1405,920; 0,01083
1085,56; 1350,030;   -4,700; 1382,280; 0,01022
1086,09; 1330,190;   -4,370; 1364,590; 0,01105
1086,63; 1312,210;   -4,040; 1342,520; 0,00989
1087,17; 1292,340;   -5,650; 1321,470; 0,00964
1087,70; 1270,490;   -3,660; 1300,870; 0,01023
1088,24; 1248,990;   -4,230; 1276,770; 0,00952
1088,78; 1227,060;   -4,890; 1256,280; 0,01018
1089,31; 1206,550;   -4,160; 1233,270; 0,00948
1089,85; 1188,370;   -5,030; 1215,390; 0,00972
1090,39; 1172,470;   -3,350; 1201,830; 0,01071
1090,92; 1159,000;   -3,870; 1182,580; 0,00872
1091,46; 1144,320;   -5,520; 1168,890; 0,00918
1092,00; 1131,470;   -4,280; 1151,670; 0,00766
1092,53; 1114,750;   -4,540; 1133,740; 0,00731
1093,07; 1099,910;   -4,410; 1118,370; 0,00720
1093,60; 1082,090;   -4,200; 1097,380; 0,00607
1094,14; 1065,870;   -4,850; 1081,900; 0,00645
1094,68; 1048,290;   -3,430; 1066,650; 0,00752
1095,21; 1033,080;   -4,650; 1051,160; 0,00750
1095,75; 1016,580;   -4,740; 1038,000; 0,00901
1096,28; 1003,320;   -4,820; 1025,030; 0,00925
1096,82;  988,490;   -4,770; 1010,930; 0,00970
1097,36;  974,830;   -4,400;  996,940; 0,00970
1097,89;  961,520;   -4,290;  980,350; 0,00839
1098,43;  947,860;   -4,340;  962,230; 0,00651
1098,96;  932,950;   -4,080;  949,140; 0,00744
1099,50;  918,160;   -4,960;  931,550; 0,00625
1100,03;  906,430;   -4,130;  916,290; 0,00468

