AE-579-300-1
Integration time [ms]:   9,690
Averaging Nr. [scans]: 100
Smoothing Nr. [pixels]: 0
Data measured with spectrometer [name]: 7420287SP
Wave   ;Sample   ;Dark     ;Reference;Absorbance
[nm]   ;[counts] ;[counts] ;[counts] ;[A.U]

 179,38;  -41,927;   -5,900;  -11,658; 0,00000
 179,98;  -42,330;   -7,260;  -10,849; 0,00000
 180,58;  -33,651;   -6,700;   -2,136; 5,00000
 181,18;  -39,638;   -6,390;   -9,378; 0,00000
 181,78;  -48,869;   -7,530;  -18,462; 0,00000
 182,38;  -52,582;   -5,990;  -22,893; 0,00000
 182,97;  -50,235;   -7,370;  -19,992; 0,00000
 183,57;  -52,782;   -7,280;  -22,543; 0,00000
 184,17;  -63,649;   -6,220;  -34,977; 0,00000
 184,77;  -65,722;   -7,400;  -36,448; 0,00000
 185,37;  -73,476;   -6,900;  -44,011; 0,00000
 185,97;  -77,896;   -6,600;  -49,622; 0,00000
 186,57;  -75,059;   -8,480;  -46,382; 0,00000
 187,17;  -86,775;   -6,220;  -58,356; 0,00000
 187,77; -109,033;   -7,810;  -83,414; 0,00000
 188,37; -100,167;   -7,360;  -71,472; 0,00000
 188,97; -122,412;   -7,440;  -95,920; 0,00000
 189,57; -120,999;   -7,750;  -93,400; 0,00000
 190,17; -139,781;   -7,250; -115,437; 0,00000
 190,77; -146,540;   -8,160; -122,249; 0,00000
 191,37; -160,502;   -7,320; -136,385; 0,00000
 191,96; -170,992;   -7,150; -148,451; 0,00000
 192,56; -207,739;   -8,280; -190,063; 0,00000
 193,16; -197,401;   -6,490; -180,689; 0,00000
 193,76; -175,416;   -7,170; -154,621; 0,00000
 194,36; -226,741;   -7,880; -208,930; 0,00000
 194,96; -230,675;   -6,440; -212,350; 0,00000
 195,56; -183,122;   -6,820; -163,761; 0,00000
 196,16; -144,056;   -6,770; -119,974; 0,00000
 196,76;  -94,307;   -7,300;  -66,225; 0,00000
 197,36;  -81,335;   -7,480;  -54,510; 0,00000
 197,95;  -61,485;   -5,890;  -30,462; 0,00000
 198,55;  -67,719;   -7,030;  -39,904; 0,00000
 199,15;  -61,521;   -7,100;  -32,032; 0,00000
 199,75;  -50,839;   -6,060;  -19,367; 0,00000
 200,35;  -65,380;   -7,710;  -34,262; 0,00000
 200,95;  -54,251;   -6,120;  -24,009; 0,00000
 201,55;  -57,577;   -6,780;  -24,838; 0,00000
 202,15;  -58,148;   -6,700;  -27,199; 0,00000
 202,74;  -45,403;   -6,500;  -13,294; 0,00000
 203,34;  -53,040;   -7,200;  -23,707; 0,00000
 203,94;  -37,485;   -5,520;   -6,811; 0,00000
 204,54;  -53,110;   -6,860;  -22,246; 0,00000
 205,14;  -43,740;   -6,990;  -11,053; 0,00000
 205,74;  -49,601;   -6,430;  -16,434; 0,00000
 206,34;  -45,447;   -6,680;  -17,054; 0,00000
 206,93;  -44,078;   -6,610;  -11,723; 0,00000
 207,53;  -47,533;   -5,640;  -15,783; 0,00000
 208,13;  -50,081;   -6,560;  -18,124; 0,00000
 208,73;  -42,685;   -5,560;  -10,461; 0,00000
 209,33;  -56,091;   -7,370;  -25,246; 0,00000
 209,93;  -44,507;   -5,930;  -11,612; 0,00000
 210,52;  -48,108;   -5,830;  -15,873; 0,00000
 211,12;  -36,544;   -6,970;   -2,469; 5,00000
 211,72;  -44,722;   -4,930;  -11,632; 0,00000
 212,32;  -41,944;   -6,430;   -8,661; 0,00000
 212,92;  -47,714;   -6,130;  -13,422; 0,00000
 213,52;  -47,731;   -5,420;  -13,352; 0,00000
 214,11;  -47,358;   -6,280;  -13,862; 0,00000
 214,71;  -39,168;   -4,770;   -4,029; 0,00000
 215,31;  -49,893;   -6,180;  -17,483; 0,00000
 215,91;  -31,503;   -6,110;    4,354; 5,00000
 216,51;  -44,863;   -5,060;  -11,301; 0,00000
 217,10;  -42,380;   -6,570;   -7,170; 0,00000
 217,70;  -51,527;   -5,840;  -15,763; 0,00000
 218,30;  -36,911;   -6,160;   -0,198; 5,00000
 218,90;  -47,894;   -6,210;  -11,852; 0,00000
 219,50;  -37,491;   -4,760;   -2,289; 5,00000
 220,09;  -37,598;   -5,670;   -0,729; 5,00000
 220,69;  -38,654;   -5,260;   -1,610; 5,00000
 221,29;  -38,452;   -4,790;   -0,079; 5,00000
 221,89;  -56,274;   -6,380;  -17,865; 0,00000
 222,49;  -40,000;   -4,820;   -2,760; 5,00000
 223,08;  -38,888;   -5,540;    0,201; 5,00000
 223,68;  -37,032;   -5,290;    3,081; 5,00000
 224,28;  -46,631;   -5,280;   -7,373; 0,00000
 224,88;  -44,149;   -5,830;   -4,222; 5,00000
 225,47;  -48,382;   -4,640;   -8,064; 0,00000
 226,07;  -38,153;   -5,450;    0,510; 5,00000
 226,67;  -43,285;   -6,250;   -4,282; 5,00000
 227,27;  -39,479;   -4,610;    1,110; 5,00000
 227,87;  -45,067;   -5,240;   -6,242; 0,00000
 228,46;  -40,013;   -4,980;    2,109; 5,00000
 229,06;  -46,527;   -5,420;   -7,723; 0,00000
 229,66;  -36,683;   -6,220;    3,060; 5,00000
 230,26;  -45,834;   -4,100;   -6,093; 0,00000
 230,85;  -51,336;   -5,990;  -11,175; 0,00000
 231,45;  -48,651;   -5,370;  -10,284; 0,00000
 232,05;  -42,669;   -4,370;   -1,592; 5,00000
 232,64;  -50,891;   -5,480;  -12,775; 0,00000
 233,24;  -57,480;   -4,940;  -16,097; 0,00000
 233,84;  -61,002;   -5,750;  -18,908; 0,00000
 234,44;  -52,938;   -6,000;  -11,146; 0,00000
 235,03;  -68,576;   -4,340;  -29,741; 0,00000
 235,63;  -57,208;   -5,380;  -18,137; 0,00000
 236,23;  -43,493;   -4,400;   -4,273; 0,00000
 236,83;  -46,570;   -4,870;   -5,304; 0,00000
 237,42;  -48,262;   -5,820;   -4,864; 0,00000
 238,02;  -64,766;   -4,580;  -23,190; 0,00000
 238,62;  -46,739;   -6,010;   -2,844; 5,00000
 239,21;  -52,317;   -5,110;   -7,646; 0,00000
 239,81;  -50,068;   -5,420;   -3,825; 5,00000
 240,41;  -52,423;   -5,880;   -7,946; 0,00000
 241,00;  -52,380;   -4,870;   -8,716; 0,00000
 241,60;  -53,899;   -5,860;   -9,326; 0,00000
 242,20;  -50,342;   -5,820;   -3,965; 5,00000
 242,80;  -51,707;   -5,140;   -6,876; 0,00000
 243,39;  -43,571;   -6,240;    3,887; 5,00000
 243,99;  -55,626;   -4,930;   -8,938; 0,00000
 244,59;  -53,598;   -6,220;   -7,336; 0,00000
 245,18;  -55,170;   -5,830;   -6,096; 0,00000
 245,78;  -57,876;   -5,340;   -9,817; 0,00000
 246,38;  -57,520;   -5,970;   -8,426; 0,00000
 246,97;  -43,368;   -5,220;    4,408; 5,00000
 247,57;  -44,109;   -5,890;    6,619; 5,00000
 248,17;  -45,639;   -6,300;    5,228; 5,00000
 248,76;  -49,403;   -4,700;    0,827; 5,00000
 249,36;  -41,337;   -6,200;    9,600; 5,00000
 249,96;  -45,138;   -5,710;    5,778; 5,00000
 250,55;  -35,603;   -5,180;   16,592; 5,00000
 251,15;  -44,441;   -6,460;    7,668; 5,00000
 251,75;  -39,169;   -4,520;   12,980; 5,00000
 252,34;  -45,351;   -5,810;    9,738; 5,00000
 252,94;  -32,526;   -5,560;   23,422; 5,00000
 253,54;  -47,210;   -5,270;    9,797; 5,00000
 254,13;  -42,026;   -6,470;   12,609; 5,00000
 254,73;  -29,777;   -5,130;   28,593; 5,00000
 255,32;  -52,317;   -5,960;    5,586; 5,00000
 255,92;  -36,890;   -5,850;   19,911; 5,00000
 256,52;  -42,548;   -5,260;   14,559; 5,00000
 257,11;  -41,102;   -6,690;   17,419; 5,00000
 257,71;  -28,087;   -5,620;   34,304; 5,00000
 258,31;  -39,591;   -4,890;   23,680; 5,00000
 258,90;  -44,072;   -6,430;   17,958; 5,00000
 259,50;  -38,545;   -4,830;   26,560; 5,00000
 260,09;  -40,530;   -5,330;   20,929; 5,00000
 260,69;  -38,421;   -5,890;   25,870; 5,00000
 261,29;  -38,217;   -5,300;   27,170; 5,00000
 261,88;  -39,807;   -7,300;   24,700; 5,00000
 262,48;  -37,854;   -5,340;   28,030; 5,00000
 263,07;  -44,495;   -5,930;   24,549; 5,00000
 263,67;  -38,514;   -6,300;   30,490; 5,00000
 264,27;  -28,504;   -5,630;   44,404; 5,00000
 264,86;  -33,958;   -6,490;   36,741; 5,00000
 265,46;  -34,636;   -4,530;   39,961; 5,00000
 266,05;  -27,428;   -5,860;   48,194; 5,00000
 266,65;  -34,055;   -6,190;   40,781; 5,00000
 267,24;  -35,602;   -4,600;   42,581; 5,00000
 267,84;  -34,729;   -6,730;   44,592; 5,00000
 268,44;  -45,158;   -5,770;   35,298; 5,00000
 269,03;  -37,435;   -5,390;   47,391; 5,00000
 269,63;  -34,598;   -6,010;   50,181; 5,00000
 270,22;  -33,921;   -4,740;   52,652; 5,00000
 270,82;  -37,338;   -6,370;   50,411; 5,00000
 271,41;  -35,048;   -5,320;   57,371; 5,00000
 272,01;  -46,724;   -5,390;   46,668; 5,00000
 272,61;  -32,426;   -6,550;   65,963; 5,00000
 273,20;  -37,292;   -5,900;   64,511; 5,00000
 273,80;  -33,133;   -5,840;   67,742; 5,00000
 274,39;  -33,392;   -5,350;   73,832; 5,00000
 274,99;  -36,558;   -6,080;   74,171; 5,00000
 275,58;  -28,512;   -6,270;   81,853; 5,00000
 276,18;  -34,840;   -5,210;   79,980; 5,00000
 276,77;  -28,299;   -5,240;   91,462; 5,00000
 277,37;  -31,048;   -6,160;   91,651; 5,00000
 277,96;  -37,339;   -5,430;   91,628; 5,00000
 278,56;  -27,719;   -6,780;  105,432; 5,00000
 279,15;  -29,742;   -4,460;  107,139; 5,00000
 279,75;  -43,636;   -5,160;   99,845; 5,00000
 280,34;  -28,359;   -6,630;  122,900; 5,00000
 280,94;  -29,499;   -5,600;  134,050; 5,00000
 281,53;  -39,253;   -5,870;  139,587; 5,00000
 282,13;  -40,962;   -5,650;  161,476; 5,00000
 282,73;  -30,770;   -5,630;  207,050; 5,00000
 283,32;  -30,770;   -5,940;  252,900; 5,00000
 283,92;  -38,936;   -5,020;  311,247; 5,00000
 284,51;  -26,591;   -5,260;  415,792; 5,00000
 285,10;  -35,132;   -6,450;  532,208; 5,00000
 285,70;  -39,607;   -5,070;  697,977; 5,00000
 286,29;  -29,109;   -5,830;  925,660; 5,00000
 286,89;  -23,663;   -5,720; 1184,342; 5,00000
 287,48;  -38,544;   -5,330; 1441,027; 5,00000
 288,08;  -34,433;   -6,080; 1728,298; 5,00000
 288,67;  -36,513;   -4,230; 1993,987; 5,00000
 289,27;  -40,377;   -6,010; 2225,696; 5,00000
 289,86;  -27,990;   -5,700; 2440,360; 5,00000
 290,46;  -30,593;   -4,870; 2544,679; 5,00000
 291,05;  -27,126;   -6,240; 2584,639; 5,00000
 291,65;  -30,708;   -4,340; 2627,318; 5,00000
 292,24;  -29,880;   -6,070; 2827,829; 5,00000
 292,84;  -33,875;   -5,980; 3264,398; 5,00000
 293,43;  -30,829;   -4,540; 3975,168; 5,00000
 294,03;  -32,941;   -6,200; 4923,077; 5,00000
 294,62;  -32,207;   -4,780; 6025,317; 5,00000
 295,21;  -30,008;   -5,230; 7190,258; 5,00000
 295,81;  -29,757;   -5,990; 8360,888; 5,00000
 296,40;  -39,071;   -5,000; 9421,704; 5,00000
 297,00;  -27,990;   -6,210;10336,897; 5,00000
 297,59;  -22,238;   -5,140;10942,378; 5,00000
 298,19;   -8,185;   -5,810;11363,151; 5,00000
 298,78;  -14,803;   -5,770;12026,347; 5,00000
 299,37;   -2,766;   -4,590;13057,047; 3,85489
 299,97;   29,019;   -5,700;14008,623; 2,60601
 300,56;   37,578;   -5,190;14647,359; 2,53479
 301,16;   61,279;   -5,540;15139,240; 2,35537
 301,75;   86,808;   -6,720;15526,949; 2,22033
 302,35;  109,118;   -5,040;15910,136; 2,14430
 302,94;  143,296;   -6,770;16281,214; 2,03559
 303,53;  200,454;   -6,570;16586,580; 1,90391
 304,13;  243,896;   -5,420;16826,779; 1,82939
 304,72;  290,373;   -4,510;17083,277; 1,76304
 305,32;  345,207;   -5,540;17283,100; 1,69277
 305,91;  394,547;   -5,690;17415,697; 1,63876
 306,50;  453,911;   -5,770;17504,010; 1,58082
 307,10;  517,642;   -4,120;17621,041; 1,52866
 307,69;  572,559;   -6,450;17679,621; 1,48495
 308,28;  624,142;   -5,210;17673,668; 1,44856
 308,88;  686,517;   -5,290;17651,184; 1,40692
 309,47;  719,636;   -6,080;17535,789; 1,38331
 310,07;  762,535;   -4,900;17384,598; 1,35525
 310,66;  797,936;   -5,220;17254,248; 1,33223
 311,25;  853,586;   -5,940;17193,801; 1,30126
 311,85;  884,127;   -4,830;17176,557; 1,28618
 312,44;  927,709;   -6,150;17178,447; 1,26486
 313,03;  972,177;   -4,780;17228,938; 1,24650
 313,63; 1012,962;   -5,840;17244,168; 1,22870
 314,22; 1047,059;   -5,420;17227,639; 1,21415
 314,81; 1088,965;   -4,940;17189,348; 1,19640
 315,41; 1126,441;   -5,710;17152,148; 1,18056
 316,00; 1148,996;   -5,040;17084,006; 1,17050
 316,59; 1185,795;   -5,220;17004,676; 1,15478
 317,19; 1223,658;   -6,440;16964,619; 1,13977
 317,78; 1258,573;   -4,920;16956,627; 1,12789
 318,37; 1302,935;   -6,240;17049,627; 1,11488
 318,97; 1350,883;   -5,450;17282,514; 1,10538
 319,56; 1418,167;   -5,660;17619,867; 1,09268
 320,15; 1488,314;   -6,820;17984,836; 1,08039
 320,75; 1563,208;   -4,350;18360,605; 1,06877
 321,34; 1637,365;   -5,900;18720,545; 1,05675
 321,93; 1722,649;   -5,990;19050,500; 1,04234
 322,53; 1795,327;   -4,940;19381,887; 1,03217
 323,12; 1871,014;   -6,410;19692,896; 1,02089
 323,71; 1947,371;   -5,360;19948,025; 1,00937
 324,31; 2034,328;   -5,540;20216,719; 0,99623
 324,90; 2126,886;   -5,890;20481,568; 0,98254
 325,49; 2207,954;   -4,660;20723,816; 0,97166
 326,09; 2304,400;   -6,610;20929,537; 0,95709
 326,68; 2401,994;   -5,390;21115,605; 0,94317
 327,27; 2498,271;   -5,550;21228,867; 0,92844
 327,86; 2599,508;   -6,190;21365,039; 0,91391
 328,46; 2695,851;   -4,340;21460,379; 0,90033
 329,05; 2801,055;   -6,380;21550,330; 0,88527
 329,64; 2898,225;   -5,210;21604,617; 0,87174
 330,23; 3016,189;   -5,180;21660,971; 0,85558
 330,83; 3082,371;   -6,460;21550,395; 0,84379
 331,42; 3181,182;   -4,810;21462,752; 0,82854
 332,01; 3243,956;   -6,880;21273,410; 0,81598
 332,61; 3306,762;   -5,500;21006,740; 0,80235
 333,20; 3358,939;   -4,930;20750,088; 0,79028
 333,79; 3415,225;   -6,410;20585,455; 0,77946
 334,38; 3506,011;   -5,070;20550,439; 0,76749
 334,98; 3602,659;   -5,360;20617,879; 0,75709
 335,57; 3733,927;   -6,090;20781,840; 0,74494
 336,16; 3828,986;   -4,230;20895,307; 0,73657
 336,75; 3920,723;   -5,830;20941,711; 0,72712
 337,34; 3990,066;   -5,730;20867,391; 0,71798
 337,94; 4052,396;   -5,270;20767,779; 0,70922
 338,53; 4111,112;   -6,200;20688,906; 0,70125
 339,12; 4170,401;   -4,640;20586,617; 0,69302
 339,71; 4211,880;   -5,710;20424,439; 0,68521
 340,31; 4228,815;   -5,280;20240,350; 0,67957
 340,90; 4252,971;   -4,830;19971,133; 0,67132
 341,49; 4204,698;   -5,760;19533,469; 0,66658
 342,08; 4138,195;   -4,990;18976,717; 0,66100
 342,67; 4099,127;   -6,550;18521,646; 0,65445
 343,27; 4120,560;   -5,760;18436,086; 0,65024
 343,86; 4207,443;   -5,020;18654,541; 0,64637
 344,45; 4311,252;   -5,980;18919,826; 0,64185
 345,04; 4385,535;   -4,950;19104,809; 0,63874
 345,63; 4436,753;   -5,620;19180,682; 0,63538
 346,23; 4473,996;   -5,960;19200,555; 0,63217
 346,82; 4464,691;   -5,080;19141,818; 0,63181
 347,41; 4483,729;   -6,440;19062,023; 0,62805
 348,00; 4470,971;   -5,750;18908,402; 0,62583
 348,59; 4455,441;   -4,810;18728,500; 0,62326
 349,19; 4426,803;   -5,860;18610,391; 0,62323
 349,78; 4422,349;   -4,640;18484,113; 0,62080
 350,37; 4418,701;   -5,810;18369,309; 0,61836
 350,96; 4403,260;   -5,080;18214,416; 0,61626
 351,55; 4364,327;   -4,230;18031,553; 0,61580
 352,14; 4357,067;   -6,210;17853,656; 0,61207
 352,74; 4335,236;   -5,030;17642,848; 0,60918
 353,33; 4302,408;   -5,650;17348,068; 0,60511
 353,92; 4271,037;   -6,540;17046,098; 0,60059
 354,51; 4251,719;   -5,280;16707,727; 0,59395
 355,10; 4233,449;   -5,660;16445,438; 0,58892
 355,69; 4226,923;   -5,060;16227,845; 0,58385
 356,28; 4308,779;   -6,090;16200,380; 0,57472
 356,88; 4382,252;   -6,410;16259,665; 0,56895
 357,47; 4508,746;   -5,210;16357,438; 0,55930
 358,06; 4619,754;   -6,240;16446,229; 0,55103
 358,65; 4702,807;   -5,370;16449,836; 0,54345
 359,24; 4766,386;   -5,360;16408,891; 0,53654
 359,83; 4851,354;   -5,670;16344,088; 0,52714
 360,42; 4916,402;   -4,470;16241,178; 0,51869
 361,01; 4979,400;   -6,190;16138,687; 0,51032
 361,61; 5021,439;   -4,780;16007,113; 0,50320
 362,20; 5073,021;   -4,670;15880,815; 0,49533
 362,79; 5086,279;   -6,230;15687,983; 0,48881
 363,38; 5086,552;   -5,610;15435,445; 0,48177
 363,97; 5032,492;   -5,360;15045,449; 0,47531
 364,56; 4922,415;   -5,940;14586,932; 0,47144
 365,15; 4839,302;   -5,370;14265,436; 0,46918
 365,74; 4937,868;   -6,430;14415,009; 0,46490
 366,33; 5162,857;   -4,760;14822,327; 0,45777
 366,92; 5297,921;   -5,390;15115,846; 0,45504
 367,51; 5374,349;   -5,630;15250,788; 0,45267
 368,11; 5373,180;   -4,360;15159,730; 0,45023
 368,70; 5391,297;   -5,990;15128,786; 0,44780
 369,29; 5409,055;   -4,800;15102,088; 0,44567
 369,88; 5354,826;   -5,490;14881,255; 0,44361
 370,47; 5304,625;   -6,570;14722,422; 0,44298
 371,06; 5291,909;   -4,900;14654,014; 0,44209
 371,65; 5300,347;   -5,370;14599,259; 0,43975
 372,24; 5254,593;   -6,310;14480,267; 0,43991
 372,83; 5207,125;   -5,280;14312,614; 0,43884
 373,42; 5159,091;   -6,180;14182,875; 0,43886
 374,01; 5111,811;   -4,960;14097,692; 0,44030
 374,60; 5094,216;   -5,280;14063,095; 0,44072
 375,19; 5089,428;   -6,460;14034,853; 0,44019
 375,78; 5048,279;   -4,370;13989,884; 0,44243
 376,37; 5058,121;   -6,230;14074,203; 0,44409
 376,96; 5155,768;   -5,440;14362,055; 0,44463
 377,55; 5243,716;   -5,260;14673,694; 0,44662
 378,14; 5344,597;   -6,510;15027,457; 0,44863
 378,73; 5437,563;   -4,160;15388,663; 0,45158
 379,32; 5463,356;   -5,960;15553,620; 0,45406
 379,91; 5318,357;   -6,060;15266,354; 0,45764
 380,50; 5262,295;   -4,960;15165,826; 0,45942
 381,09; 5132,733;   -5,750;14952,033; 0,46403
 381,68; 5044,477;   -4,960;14808,342; 0,46741
 382,27; 5030,816;   -6,490;14902,302; 0,47124
 382,86; 4954,964;   -6,310;14845,117; 0,47617
 383,45; 4817,430;   -4,200;14597,251; 0,48120
 384,04; 4690,582;   -5,500;14345,894; 0,48516
 384,63; 4490,533;   -4,590;13914,956; 0,49088
 385,22; 4299,813;   -5,790;13538,934; 0,49774
 385,81; 4265,817;   -6,230;13549,066; 0,50147
 386,40; 4336,958;   -5,420;13954,853; 0,50717
 386,99; 4460,688;   -5,960;14485,764; 0,51114
 387,58; 4531,396;   -5,080;14908,053; 0,51685
 388,17; 4562,155;   -5,250;15174,521; 0,52160
 388,76; 4484,077;   -6,430;15093,854; 0,52669
 389,35; 4297,373;   -4,040;14685,264; 0,53339
 389,94; 4236,235;   -5,360;14625,833; 0,53775
 390,53; 4206,179;   -5,860;14721,737; 0,54364
 391,12; 4220,187;   -5,000;14912,809; 0,54786
 391,71; 4293,077;   -6,860;15320,963; 0,55202
 392,30; 4420,857;   -5,160;15932,673; 0,55642
 392,89; 4454,536;   -5,530;16148,564; 0,55894
 393,48; 4166,103;   -6,530;15333,201; 0,56541
 394,07; 3951,851;   -4,660;14698,804; 0,57011
 394,66; 3870,184;   -5,890;14503,936; 0,57327
 395,25; 3765,276;   -4,960;14289,910; 0,57881
 395,84; 3698,095;   -5,600;14163,083; 0,58269
 396,43; 3707,889;   -6,000;14363,882; 0,58762
 397,01; 3767,533;   -3,950;14790,530; 0,59359
 397,60; 3925,137;   -5,810;15564,751; 0,59781
 398,19; 4044,180;   -5,480;16192,614; 0,60205
 398,78; 3927,671;   -5,320;15965,813; 0,60861
 399,37; 3680,470;   -5,480;15205,227; 0,61560
 399,96; 3475,027;   -4,570;14651,054; 0,62448
 400,55; 3354,288;   -5,840;14453,981; 0,63381
 401,14; 3282,745;   -5,620;14314,305; 0,63896
 401,73; 3125,168;   -4,260;13933,732; 0,64874
 402,32; 3038,253;   -5,370;13770,024; 0,65571
 402,91; 2948,066;   -5,350;13673,123; 0,66571
 403,49; 2878,840;   -5,010;13654,755; 0,67547
 404,08; 2808,457;   -6,450;13664,610; 0,68634
 404,67; 2765,088;   -5,250;13766,613; 0,69646
 405,26; 2655,577;   -6,700;13676,157; 0,71092
 405,85; 2484,770;   -4,470;13122,940; 0,72211
 406,44; 2278,749;   -5,200;12478,320; 0,73765
 407,03; 2189,349;   -6,190;12282,394; 0,74796
 407,62; 2143,671;   -4,640;12419,623; 0,76217
 408,20; 2150,048;   -6,570;12895,163; 0,77687
 408,79; 2104,227;   -5,130;13054,183; 0,79177
 409,38; 1998,598;   -5,230;12876,952; 0,80813
 409,97; 1889,162;   -6,810;12600,513; 0,82279
 410,56; 1746,475;   -4,430;12102,552; 0,83977
 411,15; 1642,244;   -5,630;11843,313; 0,85676
 411,73; 1555,478;   -6,450;11638,963; 0,87249
 412,32; 1489,983;   -5,050;11605,712; 0,89021
 412,91; 1416,712;   -6,450;11526,440; 0,90868
 413,50; 1347,524;   -5,360;11359,122; 0,92429
 414,09; 1255,950;   -6,140;11051,513; 0,94257
 414,68; 1179,290;   -5,630;10853,941; 0,96212
 415,26; 1135,336;   -4,250;10862,691; 0,97936
 415,85; 1120,011;   -6,300;11073,649; 0,99288
 416,44; 1114,531;   -5,220;11334,441; 1,00548
 417,03; 1088,415;   -5,070;11444,752; 1,01999
 417,62; 1064,948;   -6,310;11583,550; 1,03418
 418,21; 1047,956;   -4,790;11753,052; 1,04800
 418,79; 1042,529;   -6,060;12015,830; 1,05937
 419,38; 1038,999;   -6,250;12247,952; 1,06907
 419,97; 1028,408;   -4,260;12586,767; 1,08610
 420,56; 1066,268;   -6,540;13267,289; 1,09247
 421,15; 1116,333;   -5,280;14098,070; 1,09948
 421,73; 1110,999;   -5,350;14330,879; 1,10863
 422,32; 1033,706;   -5,480;13561,922; 1,11580
 422,91;  957,478;   -4,900;12863,722; 1,12619
 423,50;  916,595;   -6,330;12437,455; 1,12979
 424,08;  887,324;   -5,480;12255,775; 1,13778
 424,67;  869,582;   -4,800;12265,322; 1,14715
 425,26;  836,639;   -6,570;12018,511; 1,15415
 425,85;  795,144;   -4,990;11536,773; 1,15911
 426,43;  768,968;   -6,430;11464,488; 1,17007
 427,02;  798,691;   -4,790;11786,823; 1,16660
 427,61;  784,780;   -5,480;11942,147; 1,17951
 428,20;  798,507;   -6,560;12145,302; 1,17881
 428,79;  830,233;   -5,010;12784,650; 1,18505
 429,37;  924,220;   -5,620;14114,384; 1,18143
 429,96;  944,235;   -5,080;14662,758; 1,18896
 430,55;  906,375;   -4,810;14095,571; 1,18962
 431,13;  814,408;   -6,410;12770,203; 1,19217
 431,72;  711,231;   -5,040;11490,180; 1,20544
 432,31;  684,054;   -5,790;11116,609; 1,20745
 432,90;  716,149;   -5,850;11635,134; 1,20745
 433,48;  784,829;   -5,160;12986,018; 1,21603
 434,07;  738,864;   -6,280;12340,589; 1,21932
 434,66;  686,203;   -5,080;11570,431; 1,22388
 435,25;  675,082;   -4,530;11451,662; 1,22678
 435,83;  666,975;   -6,290;11447,029; 1,23075
 436,42;  663,810;   -4,130;11608,938; 1,24021
 437,01;  639,057;   -6,580;11061,854; 1,23410
 437,59;  614,904;   -4,810;10888,692; 1,24498
 438,18;  622,755;   -4,970;11136,952; 1,24919
 438,77;  613,938;   -6,660;11132,932; 1,25406
 439,35;  590,000;   -4,840;10872,590; 1,26213
 439,94;  563,595;   -5,460;10739,049; 1,27603
 440,53;  591,310;   -5,150;11394,699; 1,28132
 441,11;  652,894;   -5,680;12628,780; 1,28295
 441,70;  635,001;   -5,880;12530,057; 1,29138
 442,29;  614,882;   -4,780;12118,452; 1,29146
 442,87;  601,519;   -5,320;12343,438; 1,30855
 443,46;  612,690;   -6,300;12585,141; 1,30839
 444,05;  571,121;   -4,750;12174,476; 1,32529
 444,63;  557,427;   -5,690;11910,591; 1,32554
 445,22;  536,210;   -5,130;11631,331; 1,33235
 445,81;  523,429;   -5,550;11556,171; 1,33958
 446,39;  527,454;   -5,730;11661,923; 1,34011
 446,98;  470,019;   -5,040;11135,764; 1,37017
 447,57;  459,001;   -5,570;10735,140; 1,36398
 448,15;  435,528;   -6,040;10469,438; 1,37518
 448,74;  431,950;   -4,490;10617,327; 1,38627
 449,33;  431,109;   -6,040;10679,788; 1,38818
 449,91;  415,122;   -4,320;10612,064; 1,40331
 450,50;  415,728;   -5,550;10469,158; 1,39557
 451,08;  402,489;   -6,200;10217,639; 1,39822
 451,67;  405,557;   -5,130;10323,029; 1,40051
 452,26;  389,824;   -5,430;10111,987; 1,40819
 452,84;  384,657;   -5,150; 9710,601; 1,39663
 453,43;  368,569;   -5,560; 9366,491; 1,39881
 454,02;  373,078;   -6,250; 9276,942; 1,38868
 454,60;  372,267;   -4,630; 9429,979; 1,39850
 455,19;  391,035;   -6,160; 9788,309; 1,39198
 455,77;  378,454;   -4,930; 9350,399; 1,38743
 456,36;  367,331;   -5,660; 9110,147; 1,38810
 456,95;  399,935;   -6,610; 9384,982; 1,36363
 457,53;  427,281;   -4,970; 9751,243; 1,35355
 458,12;  431,827;   -5,960; 9776,282; 1,34918
 458,70;  443,289;   -5,580; 9763,162; 1,33772
 459,29;  451,822;   -4,970; 9930,179; 1,33746
 459,87;  467,263;   -6,270; 9889,210; 1,32009
 460,46;  468,030;   -3,970; 9746,448; 1,31508
 461,05;  483,777;   -5,650; 9683,681; 1,29661
 461,63;  451,501;   -6,180; 8703,012; 1,27942
 462,22;  435,738;   -5,550; 8242,399; 1,27162
 462,80;  461,238;   -5,800; 8390,059; 1,25471
 463,39;  515,576;   -5,400; 8891,709; 1,23243
 463,97;  551,783;   -5,700; 9084,410; 1,21234
 464,56;  619,628;   -6,550; 9627,189; 1,18710
 465,14;  671,378;   -4,100;10074,676; 1,17380
 465,73;  733,512;   -5,280;10231,321; 1,14163
 466,31;  658,161;   -5,660; 8999,616; 1,13245
 466,90;  630,049;   -4,910; 8166,489; 1,10955
 467,49;  644,258;   -5,730; 7900,441; 1,08506
 468,07;  659,795;   -4,340; 7732,969; 1,06633
 468,66;  651,813;   -5,650; 7292,378; 1,04533
 469,24;  668,339;   -5,730; 7025,490; 1,01833
 469,83;  681,991;   -4,930; 6812,619; 0,99672
 470,41;  718,399;   -5,120; 6782,429; 0,97226
 471,00;  750,255;   -4,840; 6712,408; 0,94919
 471,58;  815,382;   -5,280; 6853,139; 0,92206
 472,17;  886,856;   -5,620; 7011,208; 0,89554
 472,75;  984,702;   -4,320; 7270,602; 0,86662
 473,34; 1066,741;   -5,840; 7477,498; 0,84367
 473,92; 1127,469;   -5,240; 7425,780; 0,81693
 474,51; 1230,749;   -5,290; 7651,762; 0,79203
 475,09; 1370,432;   -5,440; 8077,649; 0,76900
 475,68; 1352,790;   -4,310; 7630,607; 0,75019
 476,26; 1382,965;   -5,490; 7362,010; 0,72479
 476,85; 1392,385;   -5,640; 7092,129; 0,70561
 477,43; 1481,598;   -5,230; 7195,595; 0,68512
 478,01; 1650,638;   -6,260; 7535,969; 0,65820
 478,60; 1655,595;   -4,850; 7285,306; 0,64251
 479,18; 1772,178;   -5,190; 7392,909; 0,61934
 479,77; 1959,384;   -5,410; 7802,379; 0,59921
 480,35; 2057,952;   -4,480; 7829,083; 0,57958
 480,94; 2097,434;   -5,720; 7690,490; 0,56341
 481,52; 2286,850;   -5,420; 8039,500; 0,54526
 482,11; 2239,956;   -4,410; 7588,831; 0,52933
 482,69; 2182,331;   -5,630; 7161,613; 0,51531
 483,27; 2287,642;   -4,660; 7257,201; 0,50078
 483,86; 2510,438;   -5,670; 7648,460; 0,48317
 484,44; 2993,927;   -4,760; 8803,228; 0,46795
 485,03; 5184,467;   -5,110;14573,998; 0,44860
 485,61;10680,993;   -6,400;28283,887; 0,42277
 486,20; 7674,813;   -4,210;20136,467; 0,41877
 486,78; 4065,188;   -5,960;10640,596; 0,41749
 487,36; 3248,676;   -5,810; 8255,808; 0,40458
 487,95; 2758,088;   -5,340; 6877,885; 0,39634
 488,53; 2732,452;   -6,000; 6627,896; 0,38426
 489,12; 2723,975;   -5,260; 6439,418; 0,37316
 489,70; 2641,089;   -5,590; 6130,464; 0,36519
 490,28; 2645,726;   -5,960; 6015,771; 0,35620
 490,87; 2788,747;   -3,600; 6177,392; 0,34509
 491,45; 2832,488;   -5,690; 6141,360; 0,33563
 492,04; 2904,750;   -4,850; 6177,928; 0,32735
 492,62; 2946,602;   -5,710; 6162,135; 0,31997
 493,20; 3056,564;   -5,990; 6280,938; 0,31235
 493,79; 3118,092;   -4,070; 6316,606; 0,30631
 494,37; 3189,001;   -6,390; 6364,004; 0,29964
 494,95; 3066,771;   -5,510; 6026,108; 0,29297
 495,54; 3280,452;   -4,350; 6352,567; 0,28674
 496,12; 3773,998;   -6,760; 7130,581; 0,27596
 496,71; 3486,756;   -4,540; 6510,045; 0,27090
 497,29; 3084,444;   -6,180; 5751,471; 0,27020
 497,87; 3067,520;   -5,490; 5659,355; 0,26562
 498,46; 3218,676;   -4,640; 5842,843; 0,25867
 499,04; 3438,888;   -6,110; 6167,314; 0,25334
 499,62; 3562,458;   -4,520; 6324,312; 0,24902
 500,21; 3400,758;   -5,290; 5995,042; 0,24592
 500,79; 3578,218;   -5,840; 6233,915; 0,24079
 501,37; 3759,149;   -4,260; 6496,562; 0,23739
 501,96; 3794,385;   -5,700; 6515,175; 0,23451
 502,54; 3825,387;   -4,730; 6507,065; 0,23049
 503,12; 3882,254;   -5,080; 6556,029; 0,22733
 503,71; 3750,021;   -6,400; 6302,826; 0,22520
 504,29; 3683,570;   -4,740; 6153,968; 0,22266
 504,87; 3739,512;   -6,130; 6187,476; 0,21842
 505,45; 3754,491;   -5,260; 6163,917; 0,21507
 506,04; 3924,505;   -5,010; 6366,737; 0,20992
 506,62; 3805,532;   -5,780; 6117,088; 0,20588
 507,20; 3620,617;   -4,860; 5787,559; 0,20349
 507,79; 3793,163;   -5,800; 6004,033; 0,19920
 508,37; 3805,397;   -6,220; 5950,647; 0,19391
 508,95; 3602,557;   -4,990; 5598,686; 0,19126
 509,53; 3587,776;   -6,450; 5533,817; 0,18793
 510,12; 3597,649;   -5,040; 5525,969; 0,18618
 510,70; 3521,758;   -5,590; 5381,236; 0,18388
 511,28; 3443,686;   -5,690; 5245,067; 0,18248
 511,87; 3296,594;   -5,260; 4994,136; 0,18016
 512,45; 3338,628;   -6,100; 5051,560; 0,17959
 513,03; 3393,049;   -5,090; 5082,628; 0,17528
 513,61; 3288,343;   -4,340; 4921,054; 0,17489
 514,20; 3266,473;   -6,360; 4858,120; 0,17211
 514,78; 3106,611;   -4,120; 4614,223; 0,17162
 515,36; 3133,804;   -6,230; 4647,862; 0,17090
 515,94; 3314,147;   -5,150; 4866,119; 0,16660
 516,52; 3353,550;   -5,210; 4905,096; 0,16493
 517,11; 3226,708;   -6,500; 4704,321; 0,16346
 517,69; 3150,610;   -4,850; 4575,460; 0,16183
 518,27; 3202,421;   -5,310; 4630,879; 0,15996
 518,85; 3434,586;   -5,320; 4932,041; 0,15695
 519,44; 3302,530;   -4,580; 4732,246; 0,15604
 520,02; 3094,562;   -6,180; 4439,419; 0,15646
 520,60; 3124,577;   -4,810; 4464,409; 0,15477
 521,18; 3238,159;   -5,500; 4595,722; 0,15184
 521,76; 3215,421;   -5,770; 4544,496; 0,15002
 522,35; 3384,277;   -4,460; 4752,815; 0,14732
 522,93; 3514,892;   -5,800; 4911,986; 0,14514
 523,51; 3688,778;   -4,920; 5137,934; 0,14374
 524,09; 3821,999;   -4,790; 5299,033; 0,14175
 524,67; 3838,550;   -5,790; 5324,256; 0,14191
 525,26; 3972,336;   -4,640; 5492,849; 0,14061
 525,84; 4178,909;   -5,630; 5772,207; 0,14012
 526,42; 4379,139;   -5,610; 6032,630; 0,13897
 527,00; 4564,004;   -5,210; 6281,236; 0,13856
 527,58; 4700,478;   -6,350; 6475,808; 0,13899
 528,16; 5101,532;   -5,050; 6968,141; 0,13530
 528,75; 5473,402;   -5,910; 7432,652; 0,13276
 529,33; 5437,013;   -5,080; 7372,596; 0,13215
 529,91; 5410,582;   -4,600; 7325,362; 0,13149
 530,49; 5437,994;   -5,920; 7343,615; 0,13035
 531,07; 5465,816;   -4,860; 7343,116; 0,12813
 531,65; 5522,847;   -5,070; 7370,571; 0,12524
 532,23; 5496,880;   -6,030; 7324,902; 0,12457
 532,82; 5734,104;   -4,680; 7587,600; 0,12155
 533,40; 5775,102;   -5,950; 7604,139; 0,11938
 533,98; 5691,734;   -4,700; 7480,682; 0,11861
 534,56; 5620,983;   -5,190; 7367,830; 0,11743
 535,14; 5500,489;   -6,640; 7198,023; 0,11669
 535,72; 5285,336;   -4,480; 6900,705; 0,11573
 536,30; 5049,784;   -5,330; 6594,844; 0,11582
 536,88; 5080,441;   -6,080; 6606,268; 0,11393
 537,47; 5332,969;   -4,940; 6896,106; 0,11154
 538,05; 5518,410;   -6,390; 7131,439; 0,11125
 538,63; 5627,422;   -4,290; 7253,049; 0,11014
 539,21; 5709,251;   -5,640; 7328,950; 0,10837
 539,79; 5691,961;   -5,640; 7286,615; 0,10717
 540,37; 5850,109;   -5,280; 7467,495; 0,10593
 540,95; 6113,285;   -5,210; 7772,129; 0,10419
 541,53; 6159,121;   -4,650; 7804,123; 0,10274
 542,11; 6229,441;   -4,910; 7871,649; 0,10155
 542,69; 6248,335;   -6,310; 7903,369; 0,10196
 543,27; 6343,764;   -4,030; 8012,210; 0,10135
 543,85; 6477,566;   -6,000; 8146,871; 0,09950
 544,44; 6545,292;   -5,320; 8220,038; 0,09887
 545,02; 6501,092;   -4,980; 8158,305; 0,09855
 545,60; 6348,688;   -5,900; 7950,643; 0,09764
 546,18; 6467,829;   -4,680; 8071,758; 0,09615
 546,76; 6798,991;   -5,770; 8473,753; 0,09556
 547,34; 7324,245;   -6,180; 9097,932; 0,09411
 547,92; 7609,666;   -5,220; 9441,734; 0,09363
 548,50; 7413,207;   -6,320; 9196,433; 0,09354
 549,08; 7349,573;   -4,910; 9120,083; 0,09368
 549,66; 7649,418;   -4,550; 9452,350; 0,09186
 550,24; 7908,511;   -6,630; 9753,821; 0,09101
 550,82; 8121,085;   -4,720;10023,301; 0,09135
 551,40; 8738,858;   -5,510;10743,449; 0,08964
 551,98; 9413,785;   -5,540;11510,551; 0,08729
 552,56; 9594,467;   -5,700;11705,625; 0,08633
 553,14; 9890,599;   -6,350;12019,386; 0,08461
 553,72;10176,619;   -4,870;12337,725; 0,08360
 554,30;10355,492;   -5,480;12557,951; 0,08371
 554,88;10864,794;   -6,400;13171,378; 0,08356
 555,46;11298,324;   -4,940;13656,166; 0,08228
 556,04;11466,383;   -6,500;13810,719; 0,08075
 556,62;11509,804;   -4,410;13836,672; 0,07994
 557,20;11716,603;   -5,700;14057,155; 0,07906
 557,78;11893,854;   -6,040;14229,088; 0,07782
 558,36;11889,263;   -4,700;14212,419; 0,07749
 558,94;12095,072;   -5,770;14413,508; 0,07613
 559,52;12496,943;   -5,440;14795,975; 0,07331
 560,10;12907,596;   -5,240;15203,382; 0,07107
 560,68;13140,938;   -6,300;15405,970; 0,06903
 561,26;13165,126;   -3,910;15404,683; 0,06821
 561,84;13185,374;   -5,730;15407,574; 0,06761
 562,42;13365,744;   -5,120;15602,753; 0,06718
 563,00;13662,397;   -4,860;15931,400; 0,06671
 563,58;13977,313;   -5,760;16278,756; 0,06617
 564,15;14208,598;   -4,270;16505,947; 0,06507
 564,73;14443,753;   -5,890;16776,053; 0,06499
 565,31;14638,604;   -6,050;17000,107; 0,06493
 565,89;14976,621;   -4,470;17409,705; 0,06536
 566,47;15320,354;   -5,790;17770,996; 0,06442
 567,05;15965,922;   -4,640;18432,580; 0,06238
 567,63;16284,139;   -5,500;18801,279; 0,06240
 568,21;16808,516;   -5,140;19389,473; 0,06202
 568,79;17447,014;   -4,280;20110,986; 0,06170
 569,37;18381,092;   -6,850;21103,471; 0,05996
 569,95;18878,881;   -5,420;21586,611; 0,05819
 570,53;19426,680;   -5,260;22159,586; 0,05715
 571,10;19873,570;   -5,800;22517,305; 0,05423
 571,68;20177,463;   -4,470;22778,572; 0,05265
 572,26;19455,756;   -5,020;21964,033; 0,05265
 572,84;20436,252;   -5,360;22964,807; 0,05065
 573,42;21442,598;   -4,890;24045,426; 0,04974
 574,00;22171,316;   -6,040;24834,660; 0,04925
 574,58;22152,617;   -4,070;24829,422; 0,04953
 575,16;21401,660;   -6,150;24023,473; 0,05017
 575,73;21207,746;   -5,710;23893,414; 0,05177
 576,31;22459,023;   -4,310;25267,787; 0,05117
 576,89;23208,711;   -6,650;26090,637; 0,05082
 577,47;24872,574;   -4,490;27931,768; 0,05037
 578,05;23868,582;   -4,760;26889,908; 0,05175
 578,63;22318,795;   -6,030;25280,342; 0,05410
 579,21;22428,270;   -4,010;25414,238; 0,05427
 579,78;23094,307;   -5,840;26109,102; 0,05327
 580,36;23736,145;   -5,120;26847,252; 0,05348
 580,94;25974,807;   -4,640;29240,145; 0,05142
 581,52;26715,102;   -5,580;29921,240; 0,04921
 582,10;25292,646;   -4,630;28445,271; 0,05101
 582,67;23733,924;   -5,670;26811,525; 0,05294
 583,25;23187,736;   -5,290;26240,268; 0,05370
 583,83;23695,514;   -5,010;26799,865; 0,05346
 584,41;24756,607;   -6,110;27837,566; 0,05093
 584,99;25661,539;   -4,430;28754,635; 0,04942
 585,57;25271,631;   -5,840;28300,229; 0,04915
 586,14;24927,684;   -5,290;27872,568; 0,04849
 586,72;25573,938;   -4,650;28522,229; 0,04738
 587,30;25884,084;   -6,320;28871,102; 0,04742
 587,88;25669,539;   -4,400;28776,438; 0,04961
 588,45;25620,465;   -5,170;28803,510; 0,05085
 589,03;25640,328;   -6,210;28928,059; 0,05238
 589,61;25979,359;   -4,090;29313,994; 0,05244
 590,19;26152,363;   -6,090;29464,543; 0,05178
 590,77;26385,832;   -4,450;29686,844; 0,05119
 591,34;26778,510;   -5,110;30029,563; 0,04975
 591,92;27220,922;   -5,850;30463,227; 0,04886
 592,50;28013,748;   -4,420;31284,998; 0,04796
 593,08;28204,902;   -5,790;31452,430; 0,04732
 593,65;28218,949;   -5,480;31495,365; 0,04770
 594,23;28315,094;   -4,900;31606,875; 0,04776
 594,81;28681,553;   -5,420;31943,346; 0,04677
 595,39;28878,193;   -3,780;32087,447; 0,04576
 595,96;28989,646;   -5,130;32133,887; 0,04471
 596,54;29161,254;   -5,840;32318,039; 0,04463
 597,12;29428,002;   -4,440;32627,777; 0,04482
 597,69;29541,535;   -6,240;32800,020; 0,04543
 598,27;29877,086;   -5,050;33218,883; 0,04604
 598,85;30119,334;   -5,290;33477,867; 0,04590
 599,43;30074,041;   -5,660;33449,680; 0,04619
 600,00;30206,303;   -4,720;33589,988; 0,04611
 600,58;30221,658;   -5,640;33653,914; 0,04671
 601,16;30256,535;   -4,320;33736,012; 0,04727
 601,73;30363,473;   -4,670;33907,336; 0,04794
 602,31;30491,588;   -6,500;34058,504; 0,04804
 602,89;30755,365;   -4,630;34324,078; 0,04767
 603,46;30901,266;   -6,060;34406,980; 0,04666
 604,04;30941,277;   -5,430;34488,984; 0,04713
 604,62;31020,863;   -4,990;34607,145; 0,04750
 605,19;31112,104;   -6,070;34765,172; 0,04821
 605,77;31184,926;   -4,830;34915,750; 0,04907
 606,35;31148,869;   -4,820;34941,336; 0,04989
 606,92;31202,438;   -5,960;35016,410; 0,05007
 607,50;31277,164;   -5,000;35018,156; 0,04906
 608,08;31378,557;   -5,840;35021,395; 0,04769
 608,65;31493,537;   -4,790;35115,520; 0,04727
 609,23;31564,568;   -4,320;35245,105; 0,04789
 609,81;31770,588;   -6,140;35494,137; 0,04812
 610,38;31667,443;   -4,590;35456,559; 0,04908
 610,96;31677,443;   -5,060;35514,047; 0,04964
 611,54;31652,018;   -5,600;35468,172; 0,04943
 612,11;31604,414;   -4,890;35330,172; 0,04839
 612,69;31710,561;   -6,020;35304,695; 0,04662
 613,26;31756,590;   -4,270;35298,512; 0,04592
 613,84;31770,113;   -5,710;35265,461; 0,04532
 614,42;31908,311;   -5,380;35349,352; 0,04447
 614,99;32000,561;   -4,620;35402,469; 0,04387
 615,57;31954,732;   -5,300;35369,168; 0,04408
 616,14;31981,932;   -4,810;35427,031; 0,04442
 616,72;31978,631;   -5,310;35453,313; 0,04479
 617,30;32033,941;   -5,970;35480,703; 0,04437
 617,87;32072,191;   -4,010;35473,820; 0,04377
 618,45;31892,848;   -6,030;35250,344; 0,04346
 619,02;31905,133;   -4,880;35285,230; 0,04373
 619,60;32052,029;   -4,680;35440,477; 0,04364
 620,17;31986,299;   -5,800;35396,930; 0,04399
 620,75;31877,953;   -4,710;35385,777; 0,04533
 621,33;32030,650;   -5,040;35630,094; 0,04624
 621,90;32012,525;   -5,490;35715,234; 0,04753
 622,48;32029,695;   -5,210;35828,133; 0,04866
 623,05;32094,789;   -6,550;35968,145; 0,04947
 623,63;31992,041;   -4,200;35887,934; 0,04990
 624,20;32164,400;   -5,160;36113,602; 0,05029
 624,78;32284,520;   -5,700;36198,125; 0,04968
 625,35;32385,600;   -4,720;36224,965; 0,04865
 625,93;32608,787;   -6,210;36376,703; 0,04748
 626,50;32805,477;   -4,270;36583,945; 0,04734
 627,08;33000,855;   -5,460;36814,125; 0,04748
 627,66;33102,492;   -5,920;36986,172; 0,04817
 628,23;33224,602;   -5,030;37149,598; 0,04849
 628,81;33423,473;   -5,540;37366,176; 0,04842
 629,38;33653,664;   -4,870;37591,875; 0,04806
 629,96;33882,328;   -4,980;37773,016; 0,04720
 630,53;34037,137;   -5,260;37902,824; 0,04671
 631,11;34302,914;   -4,460;38198,520; 0,04671
 631,68;34551,191;   -5,320;38416,180; 0,04604
 632,26;34720,512;   -5,580;38505,852; 0,04493
 632,83;35057,816;   -5,480;38805,598; 0,04410
 633,40;35389,785;   -5,530;39091,719; 0,04320
 633,98;35607,203;   -4,080;39154,770; 0,04124
 634,55;35826,648;   -4,900;39319,465; 0,04040
 635,13;36043,391;   -5,810;39504,043; 0,03981
 635,70;36170,617;   -4,730;39585,398; 0,03917
 636,28;36339,406;   -6,190;39797,770; 0,03947
 636,85;36479,023;   -4,640;40004,289; 0,04006
 637,43;36518,434;   -4,400;40118,270; 0,04083
 638,00;36622,121;   -5,800;40338,930; 0,04197
 638,58;36700,813;   -4,830;40524,398; 0,04304
 639,15;36660,820;   -5,450;40597,129; 0,04429
 639,73;36704,875;   -5,330;40751,316; 0,04541
 640,30;36734,844;   -4,490;40823,027; 0,04582
 640,87;36714,004;   -5,830;40719,434; 0,04496
 641,45;36718,629;   -4,810;40706,039; 0,04477
 642,02;36816,336;   -5,080;40794,758; 0,04456
 642,60;36808,023;   -4,980;40783,016; 0,04453
 643,17;36864,691;   -4,540;40926,664; 0,04539
 643,74;37060,949;   -4,640;41168,742; 0,04565
 644,32;37193,074;   -5,360;41291,859; 0,04540
 644,89;37267,023;   -5,450;41384,215; 0,04550
 645,47;37414,750;   -6,440;41492,172; 0,04492
 646,04;37477,137;   -4,340;41511,059; 0,04439
 646,61;37457,625;   -5,730;41557,477; 0,04510
 647,19;37493,789;   -4,910;41676,684; 0,04593
 647,76;37524,887;   -5,380;41718,234; 0,04600
 648,34;37488,234;   -5,640;41633,160; 0,04554
 648,91;37618,953;   -4,900;41731,438; 0,04505
 649,48;37740,289;   -5,670;41776,285; 0,04412
 650,06;37762,945;   -5,550;41745,223; 0,04353
 650,63;37921,875;   -4,670;41878,359; 0,04309
 651,20;38107,422;   -6,030;42022,449; 0,04247
 651,78;38220,270;   -4,910;42149,336; 0,04249
 652,35;38467,523;   -5,690;42459,922; 0,04288
 652,92;38753,703;   -5,390;42826,711; 0,04340
 653,50;38883,891;   -4,970;43053,547; 0,04423
 654,07;39005,176;   -5,870;43288,125; 0,04524
 654,64;39726,492;   -4,440;44146,301; 0,04581
 655,22;44936,820;   -5,020;49737,469; 0,04408
 655,79;55627,719;   -5,310;60748,227; 0,03824
 656,36;45041,176;   -4,680;49727,547; 0,04298
 656,94;40810,773;   -5,650;45281,633; 0,04514
 657,51;40453,770;   -5,130;44840,602; 0,04471
 658,08;40649,328;   -5,010;45017,977; 0,04433
 658,66;40818,883;   -6,190;45166,016; 0,04394
 659,23;40830,371;   -4,490;45171,242; 0,04387
 659,80;40956,227;   -6,150;45270,602; 0,04349
 660,38;41213,234;   -5,210;45384,848; 0,04187
 660,95;41291,621;   -4,630;45389,605; 0,04109
 661,52;41239,281;   -6,350;45462,961; 0,04234
 662,09;41359,367;   -4,530;45711,660; 0,04345
 662,67;41461,105;   -5,380;45894,367; 0,04411
 663,24;41465,020;   -5,600;45972,004; 0,04481
 663,81;41648,238;   -4,610;46160,152; 0,04467
 664,39;41890,188;   -6,400;46344,371; 0,04388
 664,96;41925,441;   -5,170;46312,969; 0,04322
 665,53;41908,949;   -5,020;46386,645; 0,04408
 666,10;41956,527;   -6,150;46505,301; 0,04470
 666,68;41835,723;   -4,100;46284,871; 0,04389
 667,25;41737,082;   -6,230;46064,855; 0,04284
 667,82;41787,328;   -5,320;45950,543; 0,04124
 668,39;41781,707;   -4,510;45944,754; 0,04125
 668,96;41690,074;   -5,640;45809,211; 0,04091
 669,54;41715,551;   -4,900;45932,008; 0,04181
 670,11;41782,168;   -5,930;45945,715; 0,04125
 670,68;41681,504;   -5,390;45800,012; 0,04092
 671,25;41671,820;   -4,740;45861,781; 0,04160
 671,83;41832,250;   -5,490;46056,078; 0,04177
 672,40;41953,176;   -5,270;46139,293; 0,04130
 672,97;41908,953;   -4,860;46148,652; 0,04185
 673,54;42017,961;   -6,090;46432,910; 0,04338
 674,11;42077,137;   -4,610;46544,059; 0,04381
 674,69;41988,086;   -5,730;46428,984; 0,04366
 675,26;42069,012;   -5,020;46478,852; 0,04329
 675,83;42184,828;   -4,680;46573,289; 0,04298
 676,40;42232,914;   -6,070;46527,508; 0,04205
 676,97;42268,805;   -4,820;46503,953; 0,04147
 677,54;42525,109;   -5,250;46702,863; 0,04069
 678,12;42694,707;   -4,680;46866,168; 0,04048
 678,69;42633,645;   -4,410;46682,668; 0,03940
 679,26;42638,563;   -6,200;46621,766; 0,03878
 679,83;42801,070;   -4,700;46738,223; 0,03821
 680,40;42742,367;   -4,760;46685,039; 0,03832
 680,97;42656,664;   -5,620;46676,379; 0,03911
 681,55;42727,879;   -4,390;46838,844; 0,03989
 682,12;42746,559;   -6,200;46909,684; 0,04036
 682,69;42666,715;   -5,220;46815,949; 0,04030
 683,26;42757,070;   -5,110;46869,688; 0,03988
 683,83;43018,309;   -6,060;47075,863; 0,03914
 684,40;43174,227;   -5,070;47086,371; 0,03767
 684,97;43262,613;   -5,470;47092,539; 0,03683
 685,54;43512,242;   -5,210;47282,207; 0,03608
 686,12;43780,719;   -4,390;47480,863; 0,03523
 686,69;43893,863;   -5,910;47598,391; 0,03518
 687,26;44102,320;   -4,120;47909,629; 0,03596
 687,83;44375,320;   -5,660;48307,406; 0,03687
 688,40;44537,527;   -5,730;48509,676; 0,03710
 688,97;44520,832;   -4,570;48568,223; 0,03779
 689,54;44726,660;   -5,510;48885,070; 0,03861
 690,11;44969,938;   -4,930;49153,656; 0,03863
 690,68;45004,574;   -5,290;49096,676; 0,03779
 691,25;44970,012;   -5,970;49174,461; 0,03881
 691,82;44999,359;   -4,740;49395,371; 0,04048
 692,40;45011,465;   -6,000;49604,828; 0,04220
 692,97;44887,543;   -4,350;49493,805; 0,04242
 693,54;44784,672;   -5,100;49380,563; 0,04242
 694,11;44799,297;   -6,350;49397,488; 0,04243
 694,68;44733,145;   -4,770;49229,469; 0,04159
 695,25;44527,344;   -5,530;49049,555; 0,04200
 695,82;44471,949;   -4,830;49160,750; 0,04353
 696,39;44461,738;   -4,970;49206,789; 0,04403
 696,96;44340,563;   -5,450;49061,117; 0,04393
 697,53;44039,063;   -4,940;48894,953; 0,04542
 698,10;44072,918;   -4,760;49005,434; 0,04607
 698,67;44080,586;   -4,700;49063,211; 0,04650
 699,24;43974,211;   -4,530;48889,285; 0,04601
 699,81;43977,609;   -5,580;48760,953; 0,04484
 700,38;44177,707;   -4,670;48866,863; 0,04381
 700,95;44173,473;   -5,210;48855,129; 0,04374
 701,52;44007,473;   -5,530;48734,926; 0,04431
 702,09;44005,438;   -4,360;48828,563; 0,04516
 702,66;44171,164;   -5,420;48880,371; 0,04399
 703,23;44186,813;   -5,200;48780,859; 0,04295
 703,80;44214,039;   -5,260;48746,527; 0,04238
 704,37;44471,746;   -5,470;48941,824; 0,04159
 704,94;44572,453;   -3,970;49028,570; 0,04138
 705,51;44401,840;   -5,900;48771,277; 0,04076
 706,08;44201,379;   -5,370;48567,195; 0,04090
 706,65;44186,105;   -4,310;48632,844; 0,04164
 707,22;44141,754;   -5,690;48546,883; 0,04131
 707,79;43861,680;   -4,520;48190,309; 0,04087
 708,36;43640,977;   -5,330;47999,898; 0,04134
 708,93;43813,473;   -5,120;48066,293; 0,04023
 709,50;43961,949;   -4,410;47982,762; 0,03800
 710,06;43954,727;   -6,030;47716,051; 0,03565
 710,63;44008,055;   -5,140;47632,676; 0,03437
 711,20;44153,641;   -5,800;47610,016; 0,03273
 711,77;44168,430;   -5,010;47480,633; 0,03140
 712,34;43956,809;   -4,640;47211,859; 0,03102
 712,91;43824,223;   -5,350;47153,688; 0,03180
 713,48;43835,262;   -4,590;47278,254; 0,03283
 714,05;43562,867;   -4,780;47068,512; 0,03361
 714,62;43089,754;   -6,420;46752,578; 0,03543
 715,19;42809,371;   -5,030;46733,656; 0,03809
 715,76;42660,270;   -4,830;46772,313; 0,03996
 716,33;42327,578;   -5,490;46459,133; 0,04044
 716,89;42008,313;   -5,170;46171,059; 0,04103
 717,46;41975,512;   -5,890;46251,348; 0,04212
 718,03;42128,699;   -4,880;46345,273; 0,04142
 718,60;42041,977;   -5,310;46128,230; 0,04028
 719,17;41986,031;   -5,730;45976,109; 0,03942
 719,74;42221,160;   -4,460;46106,566; 0,03823
 720,31;42504,797;   -5,410;46323,484; 0,03736
 720,88;42515,855;   -4,770;46235,973; 0,03643
 721,44;42403,762;   -5,210;46112,148; 0,03641
 722,01;42641,789;   -5,530;46294,766; 0,03569
 722,58;42909,914;   -4,550;46454,125; 0,03446
 723,15;42905,602;   -5,420;46367,293; 0,03369
 723,72;42748,160;   -5,410;46255,297; 0,03424
 724,29;42857,066;   -4,610;46357,957; 0,03410
 724,85;43030,273;   -5,630;46442,004; 0,03313
 725,42;42914,012;   -5,050;46223,203; 0,03226
 725,99;42659,309;   -5,750;46070,520; 0,03340
 726,56;42668,895;   -4,980;46260,707; 0,03510
 727,13;42681,531;   -4,060;46418,035; 0,03644
 727,69;42567,852;   -5,640;46459,691; 0,03799
 728,26;42539,918;   -4,590;46594,418; 0,03953
 728,83;42753,715;   -5,430;46886,316; 0,04007
 729,40;42982,133;   -5,330;47112,453; 0,03984
 729,97;42935,797;   -4,760;46976,063; 0,03905
 730,53;42782,414;   -6,480;46828,570; 0,03924
 731,10;42807,422;   -4,910;46873,047; 0,03940
 731,67;42929,699;   -4,350;46977,113; 0,03912
 732,24;42861,605;   -6,240;46818,180; 0,03834
 732,81;42774,574;   -4,820;46685,438; 0,03799
 733,37;42874,391;   -5,040;46784,766; 0,03790
 733,94;43109,090;   -5,220;46979,535; 0,03734
 734,51;42926,555;   -4,940;46815,941; 0,03766
 735,08;42612,895;   -5,830;46609,137; 0,03892
 735,64;42615,289;   -4,780;46671,848; 0,03949
 736,21;42728,758;   -5,040;46803,594; 0,03955
 736,78;42624,586;   -5,230;46707,141; 0,03972
 737,35;42375,180;   -4,720;46469,688; 0,04005
 737,91;42373,469;   -5,610;46461,566; 0,03999
 738,48;42702,926;   -5,020;46715,582; 0,03900
 739,05;42973,164;   -5,110;46863,582; 0,03763
 739,61;42865,648;   -5,320;46667,629; 0,03690
 740,18;42876,957;   -4,280;46623,984; 0,03638
 740,75;43152,133;   -5,030;46962,574; 0,03675
 741,32;43323,012;   -4,680;47075,152; 0,03607
 741,88;43230,418;   -4,750;46952,090; 0,03586
 742,45;43119,688;   -5,620;46874,305; 0,03625
 743,02;43120,465;   -4,750;46987,992; 0,03730
 743,58;43087,301;   -5,540;47106,699; 0,03873
 744,15;42962,828;   -4,810;46994,320; 0,03895
 744,72;42747,164;   -4,740;46768,785; 0,03904
 745,28;42838,383;   -5,700;46836,324; 0,03874
 745,85;42934,449;   -4,620;46962,922; 0,03895
 746,42;42744,645;   -5,300;46804,727; 0,03940
 746,98;42503,984;   -5,740;46468,707; 0,03873
 747,55;42390,531;   -4,260;46307,305; 0,03838
 748,12;42450,137;   -6,090;46291,070; 0,03761
 748,68;42372,766;   -4,250;46151,949; 0,03710
 749,25;42203,852;   -5,320;46050,414; 0,03788
 749,82;42217,309;   -5,850;46139,492; 0,03858
 750,38;42386,805;   -4,790;46321,051; 0,03854
 750,95;42433,832;   -5,640;46243,590; 0,03733
 751,52;42229,809;   -4,610;45941,164; 0,03658
 752,08;41975,559;   -5,050;45742,555; 0,03732
 752,65;41997,586;   -6,220;45823,039; 0,03785
 753,21;42094,551;   -4,230;45893,418; 0,03752
 753,78;41926,059;   -5,470;45695,285; 0,03738
 754,35;41590,598;   -6,130;45389,594; 0,03796
 754,91;41573,762;   -4,900;45401,449; 0,03825
 755,48;41679,641;   -5,860;45515,117; 0,03823
 756,04;41598,488;   -4,130;45342,957; 0,03743
 756,61;41426,824;   -5,240;45163,023; 0,03750
 757,18;41373,273;   -5,000;45158,332; 0,03801
 757,74;41514,848;   -4,640;45285,727; 0,03775
 758,31;41440,145;   -5,730;45158,465; 0,03731
 758,87;41301,684;   -5,280;44937,305; 0,03663
 759,44;41158,039;   -5,400;44821,902; 0,03703
 760,00;41229,438;   -5,170;44965,938; 0,03767
 760,57;41376,715;   -4,690;45134,656; 0,03775
 761,14;41184,242;   -4,680;44870,672; 0,03723
 761,70;40903,520;   -5,120;44516,410; 0,03676
 762,27;40944,688;   -4,590;44653,020; 0,03765
 762,83;41255,625;   -5,320;45057,645; 0,03828
 763,40;41482,891;   -4,670;45361,621; 0,03882
 763,96;41469,867;   -4,960;45390,141; 0,03922
 764,53;41480,426;   -5,110;45548,309; 0,04062
 765,09;41507,273;   -4,790;45703,656; 0,04182
 765,66;41631,270;   -5,610;45827,504; 0,04170
 766,22;41599,887;   -4,470;45696,461; 0,04079
 766,79;41392,164;   -4,580;45380,359; 0,03995
 767,35;41394,242;   -5,430;45380,367; 0,03992
 767,92;41613,047;   -4,330;45494,102; 0,03872
 768,48;41786,734;   -5,350;45487,109; 0,03685
 769,05;41561,551;   -5,450;45170,789; 0,03616
 769,61;41443,699;   -4,760;44977,086; 0,03553
 770,18;41633,285;   -5,810;45144,492; 0,03516
 770,74;41898,594;   -4,430;45316,910; 0,03406
 771,31;41864,410;   -5,450;45290,059; 0,03415
 771,87;41635,027;   -4,940;45111,105; 0,03482
 772,44;41695,023;   -4,890;45330,813; 0,03631
 773,00;41888,484;   -5,630;45646,160; 0,03730
 773,57;42015,211;   -4,930;45871,809; 0,03814
 774,13;41848,688;   -5,560;45727,125; 0,03849
 774,70;41757,125;   -5,490;45632,512; 0,03854
 775,26;41821,891;   -4,810;45697,332; 0,03848
 775,82;41979,777;   -5,460;45856,488; 0,03836
 776,39;41938,906;   -4,580;45793,816; 0,03819
 776,95;41710,582;   -5,390;45598,363; 0,03870
 777,52;41611,969;   -5,530;45592,129; 0,03967
 778,08;41760,605;   -4,340;45834,836; 0,04042
 778,65;41930,055;   -5,920;46032,113; 0,04053
 779,21;41785,371;   -5,480;45920,023; 0,04097
 779,77;41521,410;   -4,800;45694,570; 0,04159
 780,34;41435,934;   -5,810;45679,168; 0,04234
 780,90;41653,063;   -4,640;45892,484; 0,04209
 781,47;41697,770;   -4,990;45781,512; 0,04057
 782,03;41558,945;   -4,770;45484,629; 0,03920
 782,59;41425,984;   -4,240;45195,387; 0,03782
 783,16;41607,430;   -5,590;45265,676; 0,03659
 783,72;41881,238;   -4,840;45395,664; 0,03499
 784,29;41813,477;   -5,230;45222,141; 0,03403
 784,85;41649,973;   -5,200;45055,598; 0,03413
 785,41;41503,461;   -4,790;45022,375; 0,03534
 785,98;41543,129;   -5,700;45164,223; 0,03629
 786,54;41551,453;   -4,410;45253,262; 0,03706
 787,10;41350,953;   -4,960;45051,199; 0,03722
 787,67;41081,809;   -5,580;44851,363; 0,03812
 788,23;40970,594;   -4,390;44844,023; 0,03923
 788,79;41064,145;   -4,850;45023,559; 0,03997
 789,36;41020,520;   -5,040;44982,387; 0,04004
 789,92;40811,156;   -5,140;44779,215; 0,04029
 790,48;40572,754;   -5,620;44563,191; 0,04074
 791,05;40561,160;   -4,330;44660,871; 0,04181
 791,61;40606,648;   -5,510;44784,816; 0,04253
 792,17;40661,336;   -5,190;44765,215; 0,04175
 792,74;40442,793;   -4,270;44439,934; 0,04093
 793,30;40284,691;   -5,810;44228,930; 0,04056
 793,86;40363,746;   -3,960;44311,496; 0,04052
 794,43;40452,766;   -5,270;44360,555; 0,04004
 794,99;40407,273;   -5,040;44228,074; 0,03923
 795,55;40127,688;   -4,050;43935,262; 0,03937
 796,11;39957,516;   -5,670;43812,457; 0,03999
 796,68;40034,805;   -5,470;43986,105; 0,04087
 797,24;40065,988;   -4,980;44105,254; 0,04171
 797,80;39893,977;   -5,220;43921,988; 0,04177
 798,36;39534,754;   -4,790;43519,516; 0,04170
 798,93;39265,410;   -5,000;43312,926; 0,04260
 799,49;39223,777;   -4,730;43327,781; 0,04321
 800,05;39277,508;   -4,330;43327,531; 0,04262
 800,61;39225,723;   -5,830;43094,047; 0,04084
 801,18;39031,441;   -4,420;42742,805; 0,03944
 801,74;38790,309;   -5,340;42481,711; 0,03947
 802,30;38836,406;   -5,550;42458,371; 0,03872
 802,86;38925,723;   -4,830;42363,676; 0,03675
 803,43;38780,969;   -5,350;42157,453; 0,03625
 803,99;38479,117;   -4,630;41830,961; 0,03627
 804,55;38262,691;   -5,670;41683,621; 0,03718
 805,11;38196,262;   -5,820;41703,867; 0,03815
 805,68;38301,898;   -4,150;41833,914; 0,03830
 806,24;38113,727;   -5,410;41654,461; 0,03857
 806,80;37695,992;   -5,000;41291,102; 0,03956
 807,36;37473,867;   -3,520;41131,406; 0,04044
 807,92;37578,785;   -4,910;41296,984; 0,04097
 808,48;37721,773;   -4,240;41403,320; 0,04044
 809,05;37585,641;   -4,750;41206,848; 0,03994
 809,61;37319,488;   -4,870;40958,527; 0,04040
 810,17;37083,266;   -4,930;40798,555; 0,04146
 810,73;37014,742;   -5,490;40840,012; 0,04271
 811,29;37034,008;   -4,680;40899,051; 0,04311
 811,85;36904,406;   -5,150;40753,168; 0,04308
 812,42;36715,922;   -5,850;40536,984; 0,04299
 812,98;36669,359;   -4,580;40456,863; 0,04268
 813,54;36832,789;   -5,170;40629,980; 0,04261
 814,10;36892,664;   -4,730;40666,758; 0,04229
 814,66;36827,820;   -5,240;40500,004; 0,04127
 815,22;36604,461;   -4,890;40200,371; 0,04069
 815,78;36514,078;   -4,340;40011,469; 0,03972
 816,35;36714,813;   -5,270;40105,508; 0,03836
 816,91;36902,840;   -5,010;40198,406; 0,03714
 817,47;36791,879;   -4,390;40038,613; 0,03672
 818,03;36589,016;   -5,540;39838,398; 0,03695
 818,59;36396,332;   -4,040;39735,695; 0,03812
 819,15;36478,820;   -5,110;39924,625; 0,03919
 819,71;36670,508;   -4,850;40109,781; 0,03893
 820,27;36881,043;   -4,720;40228,500; 0,03773
 820,83;36962,680;   -5,570;40234,297; 0,03683
 821,39;36903,188;   -4,140;40163,813; 0,03677
 821,96;37021,426;   -5,550;40350,711; 0,03739
 822,52;37324,453;   -5,110;40731,090; 0,03793
 823,08;37453,660;   -4,330;40865,855; 0,03786
 823,64;37433,598;   -4,980;40828,574; 0,03770
 824,20;37303,563;   -4,710;40671,543; 0,03754
 824,76;37353,063;   -5,090;40797,379; 0,03830
 825,32;37614,406;   -5,580;41113,535; 0,03863
 825,88;37799,266;   -3,990;41282,824; 0,03828
 826,44;37850,281;   -5,490;41224,703; 0,03708
 827,00;37916,770;   -4,980;41215,840; 0,03623
 827,56;37972,777;   -4,980;41214,176; 0,03557
 828,12;38193,695;   -5,440;41473,152; 0,03577
 828,68;38451,332;   -4,550;41721,102; 0,03544
 829,24;38493,680;   -4,750;41764,250; 0,03541
 829,80;38328,516;   -5,140;41621,148; 0,03579
 830,36;38128,621;   -4,640;41561,195; 0,03743
 830,92;38113,051;   -5,830;41652,262; 0,03856
 831,48;38295,668;   -5,150;41914,668; 0,03921
 832,04;38332,855;   -4,610;41839,758; 0,03801
 832,60;38187,563;   -5,670;41565,766; 0,03681
 833,16;37918,848;   -4,480;41321,121; 0,03731
 833,72;37782,434;   -4,680;41218,840; 0,03780
 834,28;37853,922;   -4,640;41333,066; 0,03818
 834,84;37909,102;   -5,020;41300,023; 0,03720
 835,40;37726,746;   -4,950;41004,133; 0,03617
 835,96;37483,664;   -5,140;40748,098; 0,03626
 836,52;37244,871;   -4,310;40566,426; 0,03710
 837,08;37187,699;   -5,280;40643,793; 0,03859
 837,64;37285,805;   -4,440;40817,613; 0,03930
 838,20;37244,051;   -5,680;40778,789; 0,03937
 838,76;37106,949;   -4,010;40606,676; 0,03914
 839,32;36929,477;   -5,010;40453,723; 0,03958
 839,88;36851,223;   -5,890;40494,941; 0,04094
 840,43;36904,320;   -5,130;40618,008; 0,04164
 840,99;36979,770;   -4,930;40626,098; 0,04084
 841,55;36853,227;   -5,040;40378,875; 0,03967
 842,11;36759,652;   -5,510;40147,930; 0,03829
 842,67;36691,238;   -5,370;40046,559; 0,03800
 843,23;36649,469;   -4,650;40124,137; 0,03933
 843,79;36676,473;   -5,210;40282,633; 0,04072
 844,35;36641,473;   -5,160;40373,371; 0,04212
 844,91;36379,719;   -5,110;40196,570; 0,04332
 845,47;36255,254;   -5,310;40107,305; 0,04385
 846,03;36256,121;   -4,650;40179,844; 0,04462
 846,58;36359,320;   -5,180;40385,660; 0,04561
 847,14;36469,758;   -4,970;40536,129; 0,04590
 847,70;36507,133;   -5,240;40467,707; 0,04472
 848,26;36330,613;   -5,260;40182,492; 0,04376
 848,82;36354,520;   -4,600;40143,063; 0,04305
 849,38;36468,188;   -5,090;40234,719; 0,04268
 849,94;36635,484;   -4,680;40364,535; 0,04209
 850,49;36681,289;   -5,230;40365,895; 0,04156
 851,05;36604,578;   -5,560;40181,852; 0,04049
 851,61;36496,965;   -4,460;40034,828; 0,04018
 852,17;36515,801;   -5,200;39991,566; 0,03948
 852,73;36701,609;   -5,020;40070,363; 0,03813
 853,29;36745,234;   -4,610;40009,383; 0,03696
 853,84;36521,754;   -5,680;39681,059; 0,03603
 854,40;36351,898;   -4,890;39494,035; 0,03600
 854,96;36084,227;   -4,470;39288,395; 0,03694
 855,52;36000,793;   -5,020;39305,180; 0,03813
 856,08;36032,461;   -4,850;39396,008; 0,03875
 856,63;35992,859;   -5,130;39205,926; 0,03713
 857,19;35788,754;   -4,570;38817,285; 0,03527
 857,75;35628,262;   -4,850;38464,871; 0,03327
 858,31;35467,820;   -5,440;38222,148; 0,03248
 858,86;35566,266;   -4,220;38286,348; 0,03200
 859,42;35745,293;   -5,820;38489,035; 0,03211
 859,98;35854,031;   -5,250;38694,262; 0,03310
 860,54;35754,668;   -4,360;38637,629; 0,03367
 861,10;35629,797;   -5,350;38577,277; 0,03451
 861,65;35644,762;   -4,790;38593,832; 0,03452
 862,21;35754,359;   -5,170;38628,180; 0,03357
 862,77;35844,105;   -4,900;38611,629; 0,03230
 863,32;35932,004;   -4,380;38566,637; 0,03073
 863,88;35777,910;   -4,790;38347,992; 0,03012
 864,44;35590,750;   -5,070;38149,520; 0,03015
 865,00;35492,035;   -4,260;38190,090; 0,03182
 865,55;35518,133;   -4,760;38347,656; 0,03328
 866,11;35548,219;   -4,570;38513,582; 0,03479
 866,67;35404,457;   -4,550;38421,082; 0,03551
 867,23;35236,484;   -4,770;38246,207; 0,03559
 867,78;35121,063;   -5,130;38167,984; 0,03613
 868,34;34972,449;   -5,700;38079,785; 0,03696
 868,90;34997,117;   -5,230;38164,859; 0,03763
 869,45;35078,992;   -4,150;38219,508; 0,03723
 870,01;35022,211;   -5,190;38058,625; 0,03610
 870,57;35067,457;   -4,070;38077,215; 0,03576
 871,12;35051,535;   -4,770;38041,910; 0,03555
 871,68;34976,832;   -5,110;38018,520; 0,03621
 872,24;35081,391;   -4,580;38052,535; 0,03530
 872,79;35258,668;   -5,780;38088,742; 0,03353
 873,35;35254,293;   -4,090;37980,441; 0,03234
 873,91;35089,891;   -5,030;37824,449; 0,03259
 874,46;34966,258;   -5,210;37737,516; 0,03312
 875,02;34872,387;   -4,510;37712,094; 0,03399
 875,57;34959,492;   -5,460;37806,301; 0,03399
 876,13;34999,410;   -4,370;37808,227; 0,03352
 876,69;34991,016;   -5,180;37787,414; 0,03339
 877,24;34695,313;   -5,250;37547,633; 0,03431
 877,80;34539,250;   -4,670;37458,332; 0,03523
 878,36;34462,547;   -5,540;37473,457; 0,03637
 878,91;34497,387;   -4,640;37480,246; 0,03601
 879,47;34464,141;   -4,640;37402,863; 0,03553
 880,02;34440,000;   -5,080;37262,672; 0,03421
 880,58;34282,238;   -4,440;37063,098; 0,03387
 881,14;34117,273;   -5,570;36956,777; 0,03471
 881,69;34011,230;   -4,740;36909,082; 0,03551
 882,25;33965,668;   -4,310;36825,551; 0,03510
 882,80;33873,844;   -5,290;36683,918; 0,03461
 883,36;33740,641;   -4,360;36502,875; 0,03417
 883,91;33482,598;   -5,180;36245,902; 0,03443
 884,47;33247,676;   -4,400;36051,379; 0,03516
 885,03;33080,012;   -3,890;35930,340; 0,03589
 885,58;33075,910;   -5,320;35911,625; 0,03572
 886,14;33004,348;   -4,620;35785,254; 0,03513
 886,69;32999,977;   -4,860;35675,230; 0,03385
 887,25;32832,953;   -5,190;35452,938; 0,03334
 887,80;32661,619;   -5,530;35238,906; 0,03298
 888,36;32601,906;   -5,610;35200,684; 0,03330
 888,91;32435,883;   -4,650;35022,031; 0,03331
 889,47;32359,881;   -4,280;34898,207; 0,03279
 890,02;32267,139;   -5,310;34769,367; 0,03243
 890,58;32118,836;   -4,470;34580,793; 0,03207
 891,13;31892,543;   -4,380;34329,750; 0,03198
 891,69;31821,059;   -4,710;34265,648; 0,03214
 892,24;31737,506;   -4,420;34175,605; 0,03214
 892,80;31719,094;   -5,570;34159,422; 0,03218
 893,35;31594,730;   -4,810;34089,320; 0,03300
 893,91;31434,447;   -5,150;33997,680; 0,03404
 894,46;31205,936;   -5,130;33810,016; 0,03480
 895,02;31017,672;   -4,150;33647,914; 0,03534
 895,57;30879,629;   -5,810;33514,602; 0,03556
 896,13;30844,977;   -4,970;33418,637; 0,03480
 896,68;30736,094;   -5,420;33225,484; 0,03382
 897,23;30578,791;   -4,970;33031,523; 0,03350
 897,79;30509,668;   -4,500;32904,332; 0,03281
 898,34;30357,736;   -4,400;32760,607; 0,03308
 898,90;30377,732;   -5,260;32754,365; 0,03271
 899,45;30434,029;   -4,520;32749,854; 0,03185
 900,01;30395,736;   -5,090;32606,730; 0,03049
 900,56;30310,295;   -4,280;32405,238; 0,02902
 901,11;30087,471;   -5,300;32185,055; 0,02926
 901,67;29937,539;   -4,110;32079,533; 0,03001
 902,22;29908,955;   -4,460;32185,100; 0,03185
 902,78;29810,123;   -5,620;32213,678; 0,03367
 903,33;29696,109;   -4,730;32157,496; 0,03458
 903,89;29596,008;   -5,130;32079,393; 0,03499
 904,44;29486,225;   -4,740;32023,641; 0,03585
 904,99;29359,541;   -4,120;31908,658; 0,03615
 905,55;29257,998;   -5,780;31819,916; 0,03645
 906,10;29258,135;   -4,760;31841,242; 0,03674
 906,65;29258,992;   -4,510;31824,600; 0,03650
 907,21;29134,820;   -6,340;31709,148; 0,03676
 907,76;28920,807;   -4,480;31475,115; 0,03675
 908,31;28707,943;   -5,510;31288,842; 0,03738
 908,87;28460,252;   -5,020;31045,301; 0,03775
 909,42;28342,738;   -4,530;30962,717; 0,03839
 909,97;28300,865;   -5,460;30920,154; 0,03843
 910,53;28311,943;   -4,180;30884,172; 0,03776
 911,08;28249,010;   -5,120;30712,240; 0,03630
 911,63;28130,980;   -5,180;30538,811; 0,03566
 912,19;27915,391;   -4,850;30279,961; 0,03531
 912,74;27786,061;   -5,090;30170,141; 0,03574
 913,29;27702,369;   -4,730;30101,080; 0,03606
 913,85;27532,471;   -4,400;29933,920; 0,03631
 914,40;27425,221;   -5,410;29786,561; 0,03586
 914,95;27185,859;   -4,600;29484,270; 0,03524
 915,51;27032,359;   -5,020;29263,119; 0,03443
 916,06;26819,131;   -4,660;29058,289; 0,03482
 916,61;26742,789;   -4,570;29017,561; 0,03545
 917,16;26703,311;   -4,810;29030,189; 0,03628
 917,72;26652,010;   -4,590;28991,430; 0,03653
 918,27;26604,350;   -5,270;28913,301; 0,03614
 918,82;26425,609;   -4,640;28669,150; 0,03538
 919,37;26257,920;   -4,620;28529,260; 0,03602
 919,93;26170,449;   -5,510;28466,449; 0,03651
 920,48;26062,350;   -3,940;28325,770; 0,03616
 921,03;26056,561;   -4,670;28305,949; 0,03595
 921,58;25961,260;   -4,690;28178,330; 0,03558
 922,14;25793,510;   -4,680;27949,631; 0,03486
 922,69;25659,029;   -5,220;27747,580; 0,03398
 923,24;25522,711;   -4,300;27518,090; 0,03269
 923,79;25443,840;   -4,490;27337,689; 0,03117
 924,35;25359,590;   -4,810;27150,080; 0,02962
 924,90;25331,150;   -4,980;27102,391; 0,02935
 925,45;25100,420;   -5,400;26828,680; 0,02891
 926,00;24901,439;   -4,520;26653,461; 0,02952
 926,55;24674,711;   -4,570;26508,070; 0,03112
 927,11;24490,211;   -6,060;26425,340; 0,03302
 927,66;24361,631;   -3,530;26356,461; 0,03418
 928,21;24194,490;   -4,010;26256,430; 0,03551
 928,76;24103,730;   -4,550;26210,061; 0,03638
 929,31;23920,471;   -5,210;26032,920; 0,03675
 929,86;23718,301;   -5,200;25753,529; 0,03575
 930,42;23558,539;   -4,390;25548,760; 0,03522
 930,97;23337,520;   -5,060;25276,170; 0,03465
 931,52;23137,430;   -4,720;25083,430; 0,03506
 932,07;22964,311;   -3,990;24893,961; 0,03503
 932,62;22814,150;   -4,540;24696,320; 0,03442
 933,17;22615,061;   -5,170;24452,340; 0,03392
 933,72;22424,381;   -5,210;24204,561; 0,03317
 934,28;22193,869;   -5,140;23970,160; 0,03343
 934,83;22054,340;   -4,520;23829,359; 0,03361
 935,38;21874,840;   -5,550;23725,699; 0,03527
 935,93;21706,600;   -4,780;23640,529; 0,03706
 936,48;21510,490;   -5,160;23530,240; 0,03897
 937,03;21294,529;   -4,790;23330,500; 0,03965
 937,58;21100,400;   -4,380;23172,850; 0,04068
 938,13;20957,820;   -5,040;23057,230; 0,04145
 938,68;20821,270;   -4,950;22946,230; 0,04219
 939,23;20686,070;   -4,710;22847,730; 0,04316
 939,79;20488,180;   -5,390;22711,750; 0,04474
 940,34;20312,279;   -4,730;22567,750; 0,04572
 940,89;20075,381;   -4,970;22322,520; 0,04607
 941,44;19908,420;   -4,760;22101,039; 0,04537
 941,99;19692,930;   -4,410;21841,119; 0,04495
 942,54;19464,750;   -4,810;21575,180; 0,04470
 943,09;19402,789;   -4,660;21450,180; 0,04356
 943,64;19243,740;   -4,840;21255,020; 0,04316
 944,19;19069,920;   -5,140;21026,609; 0,04241
 944,74;18907,869;   -3,980;20838,070; 0,04221
 945,29;18679,990;   -4,970;20586,330; 0,04219
 945,84;18532,230;   -4,790;20411,840; 0,04194
 946,39;18382,061;   -5,240;20231,080; 0,04161
 946,94;18175,750;   -5,220;20027,449; 0,04212
 947,49;18043,430;   -3,940;19837,631; 0,04116
 948,04;17852,100;   -5,030;19641,539; 0,04148
 948,59;17669,471;   -5,120;19444,381; 0,04156
 949,14;17401,189;   -3,890;19175,770; 0,04216
 949,69;17106,689;   -5,180;18874,141; 0,04269
 950,24;16811,900;   -4,340;18616,680; 0,04427
 950,79;16578,131;   -4,300;18398,170; 0,04523
 951,34;16398,760;   -5,210;18205,500; 0,04538
 951,89;16152,900;   -4,610;17934,619; 0,04543
 952,44;15968,880;   -5,150;17706,119; 0,04484
 952,99;15792,960;   -4,810;17472,980; 0,04389
 953,54;15572,700;   -4,780;17200,061; 0,04315
 954,09;15452,200;   -5,260;16995,029; 0,04132
 954,64;15300,170;   -4,610;16777,350; 0,04002
 955,19;15123,870;   -4,760;16562,600; 0,03945
 955,74;14956,020;   -4,420;16345,930; 0,03858
 956,28;14755,330;   -3,830;16119,880; 0,03840
 956,83;14606,260;   -4,660;15964,020; 0,03859
 957,38;14456,980;   -4,160;15753,310; 0,03728
 957,93;14353,250;   -4,720;15609,200; 0,03642
 958,48;14246,910;   -5,190;15476,180; 0,03593
 959,03;14190,570;   -5,030;15380,710; 0,03496
 959,58;14086,390;   -4,310;15247,260; 0,03438
 960,13;13985,110;   -4,470;15113,550; 0,03369
 960,68;13924,610;   -5,300;15015,570; 0,03275
 961,23;13855,790;   -4,750;14903,860; 0,03166
 961,77;13734,130;   -4,400;14737,460; 0,03061
 962,32;13617,980;   -5,780;14594,400; 0,03006
 962,87;13511,820;   -5,400;14462,540; 0,02952
 963,42;13386,050;   -4,720;14313,630; 0,02909
 963,97;13301,210;   -5,210;14208,710; 0,02865
 964,52;13177,390;   -4,250;14066,240; 0,02834
 965,07;13070,930;   -4,440;13912,330; 0,02708
 965,61;12949,650;   -5,210;13797,830; 0,02754
 966,16;12843,580;   -5,180;13686,380; 0,02759
 966,71;12733,320;   -5,400;13581,550; 0,02800
 967,26;12630,780;   -4,950;13487,960; 0,02851
 967,81;12502,080;   -5,400;13371,300; 0,02918
 968,36;12407,220;   -5,020;13245,860; 0,02839
 968,90;12280,290;   -4,220;13150,940; 0,02974
 969,45;12183,520;   -4,970;13048,180; 0,02977
 970,00;12073,490;   -4,250;12967,880; 0,03103
 970,55;12006,230;   -4,140;12915,540; 0,03170
 971,10;11925,690;   -4,850;12867,690; 0,03300
 971,64;11849,160;   -4,800;12808,800; 0,03381
 972,19;11765,890;   -5,000;12722,430; 0,03393
 972,74;11690,670;   -5,160;12653,330; 0,03435
 973,29;11549,840;   -4,880;12541,080; 0,03574
 973,84;11455,180;   -5,370;12481,980; 0,03726
 974,38;11379,880;   -4,290;12446,770; 0,03890
 974,93;11311,110;   -4,390;12416,110; 0,04047
 975,48;11250,090;   -5,200;12391,990; 0,04197
 976,03;11186,010;   -4,450;12323,880; 0,04206
 976,57;11089,470;   -5,450;12216,790; 0,04203
 977,12;11012,780;   -4,620;12096,930; 0,04076
 977,67;10927,460;   -4,540;11973,140; 0,03967
 978,21;10856,750;   -5,010;11888,600; 0,03941
 978,76;10762,610;   -4,870;11789,630; 0,03957
 979,31;10692,910;   -4,790;11721,150; 0,03986
 979,86;10613,110;   -5,190;11620,210; 0,03935
 980,40;10551,590;   -4,510;11555,870; 0,03947
 980,95;10458,680;   -5,310;11434,910; 0,03874
 981,50;10398,640;   -4,620;11361,490; 0,03844
 982,04;10349,960;   -5,420;11292,190; 0,03782
 982,59;10333,520;   -4,740;11237,540; 0,03641
 983,14;10287,270;   -5,020;11193,170; 0,03664
 983,68;10228,200;   -5,440;11136,080; 0,03691
 984,23;10182,050;   -4,760;11064,690; 0,03609
 984,78;10107,680;   -5,090;10980,410; 0,03595
 985,32;10007,830;   -4,720;10860,030; 0,03548
 985,87; 9934,370;   -4,490;10779,590; 0,03545
 986,42; 9834,100;   -5,310;10678,020; 0,03574
 986,96; 9757,580;   -5,410;10604,950; 0,03615
 987,51; 9701,450;   -5,230;10547,920; 0,03631
 988,06; 9616,570;   -5,070;10442,500; 0,03577
 988,60; 9498,750;   -4,830;10314,250; 0,03575
 989,15; 9420,440;   -4,590;10247,170; 0,03652
 989,70; 9359,140;   -4,550;10186,230; 0,03676
 990,24; 9267,990;   -4,630;10118,890; 0,03813
 990,79; 9162,120;   -4,960;10019,270; 0,03882
 991,33; 9074,000;   -4,890; 9934,270; 0,03932
 991,88; 9015,510;   -4,530; 9889,430; 0,04016
 992,43; 8955,240;   -5,180; 9852,750; 0,04146
 992,97; 8909,770;   -4,870; 9788,790; 0,04084
 993,52; 8825,640;   -5,060; 9699,100; 0,04096
 994,06; 8781,590;   -4,570; 9627,740; 0,03993
 994,61; 8736,030;   -4,940; 9545,190; 0,03845
 995,16; 8680,230;   -5,120; 9487,450; 0,03860
 995,70; 8622,220;   -4,430; 9382,350; 0,03667
 996,25; 8572,380;   -5,000; 9306,630; 0,03567
 996,79; 8509,720;   -4,540; 9213,670; 0,03450
 997,34; 8444,780;   -4,820; 9132,200; 0,03397
 997,88; 8385,870;   -5,340; 9044,180; 0,03280
 998,43; 8332,330;   -4,410; 8979,250; 0,03246
 998,97; 8285,530;   -4,480; 8888,550; 0,03049
 999,52; 8225,010;   -5,200; 8811,140; 0,02988
1000,06; 8177,770;   -4,870; 8759,810; 0,02984
1000,61; 8144,790;   -4,820; 8699,890; 0,02862
1001,15; 8099,520;   -4,540; 8653,880; 0,02874
1001,70; 8063,670;   -4,530; 8590,680; 0,02748
1002,24; 8014,930;   -4,890; 8533,020; 0,02719
1002,79; 7967,780;   -4,070; 8466,490; 0,02635
1003,33; 7910,980;   -4,800; 8387,840; 0,02540
1003,88; 7865,710;   -4,750; 8350,000; 0,02593
1004,42; 7825,100;   -4,900; 8310,330; 0,02611
1004,97; 7766,500;   -5,110; 8235,320; 0,02544
1005,51; 7713,950;   -4,370; 8184,840; 0,02572
1006,06; 7652,260;   -5,200; 8117,200; 0,02560
1006,60; 7608,150;   -5,090; 8057,320; 0,02490
1007,15; 7564,320;   -4,550; 8012,990; 0,02501
1007,69; 7528,570;   -4,380; 7975,090; 0,02501
1008,24; 7465,770;   -4,850; 7925,310; 0,02593
1008,78; 7415,200;   -5,190; 7893,190; 0,02711
1009,33; 7352,270;   -4,840; 7844,340; 0,02812
1009,87; 7304,010;   -4,730; 7803,300; 0,02870
1010,41; 7236,620;   -5,260; 7744,370; 0,02943
1010,96; 7164,880;   -4,080; 7683,120; 0,03031
1011,50; 7103,850;   -4,910; 7619,740; 0,03043
1012,05; 7065,850;   -5,110; 7568,420; 0,02982
1012,59; 7007,460;   -4,380; 7522,480; 0,03078
1013,13; 6931,690;   -4,500; 7457,920; 0,03176
1013,68; 6878,910;   -5,000; 7418,270; 0,03276
1014,22; 6812,280;   -5,310; 7352,580; 0,03312
1014,77; 6751,630;   -4,720; 7289,410; 0,03326
1015,31; 6695,010;   -4,670; 7234,710; 0,03365
1015,85; 6647,740;   -5,160; 7178,790; 0,03335
1016,40; 6582,520;   -5,250; 7119,950; 0,03406
1016,94; 6517,770;   -4,480; 7068,220; 0,03519
1017,48; 6471,740;   -4,820; 7023,830; 0,03553
1018,03; 6420,460;   -4,720; 6988,830; 0,03681
1018,57; 6380,210;   -5,190; 6939,510; 0,03647
1019,11; 6321,750;   -5,290; 6873,160; 0,03629
1019,66; 6263,380;   -4,840; 6822,490; 0,03711
1020,20; 6216,700;   -5,330; 6766,260; 0,03676
1020,74; 6150,160;   -5,040; 6701,890; 0,03728
1021,29; 6117,070;   -5,200; 6664,810; 0,03721
1021,83; 6065,260;   -4,440; 6608,610; 0,03723
1022,37; 6017,140;   -5,290; 6558,040; 0,03735
1022,92; 5970,310;   -5,370; 6504,210; 0,03717
1023,46; 5925,900;   -4,040; 6438,160; 0,03598
1024,00; 5871,980;   -4,390; 6362,270; 0,03480
1024,55; 5828,500;   -5,080; 6310,700; 0,03449
1025,09; 5786,990;   -4,410; 6251,020; 0,03347
1025,63; 5754,480;   -4,970; 6218,320; 0,03364
1026,17; 5709,340;   -4,770; 6161,630; 0,03308
1026,72; 5667,480;   -4,270; 6110,550; 0,03267
1027,26; 5628,230;   -4,910; 6084,890; 0,03385
1027,80; 5583,330;   -4,860; 6042,250; 0,03428
1028,35; 5541,360;   -5,240; 5987,630; 0,03361
1028,89; 5496,510;   -4,180; 5946,410; 0,03414
1029,43; 5453,770;   -4,760; 5904,410; 0,03445
1029,97; 5429,310;   -5,070; 5853,370; 0,03263
1030,52; 5379,430;   -4,600; 5819,820; 0,03415
1031,06; 5339,150;   -4,470; 5776,970; 0,03420
1031,60; 5289,690;   -4,890; 5708,670; 0,03308
1032,14; 5225,970;   -3,990; 5647,360; 0,03365
1032,68; 5163,060;   -5,380; 5577,250; 0,03348
1033,23; 5095,340;   -4,360; 5505,520; 0,03360
1033,77; 5023,810;   -4,910; 5420,680; 0,03299
1034,31; 4948,080;   -4,380; 5341,050; 0,03316
1034,85; 4878,570;   -4,400; 5260,390; 0,03270
1035,39; 4807,160;   -5,040; 5174,850; 0,03198
1035,94; 4748,620;   -5,020; 5124,050; 0,03301
1036,48; 4694,810;   -4,590; 5078,470; 0,03408
1037,02; 4627,280;   -5,010; 5010,170; 0,03449
1037,56; 4562,530;   -3,670; 4958,930; 0,03615
1038,10; 4495,580;   -5,070; 4882,900; 0,03585
1038,64; 4433,980;   -4,760; 4825,960; 0,03675
1039,19; 4382,970;   -3,820; 4768,390; 0,03657
1039,73; 4339,800;   -5,240; 4719,980; 0,03643
1040,27; 4280,230;   -4,940; 4653,890; 0,03631
1040,81; 4227,400;   -4,970; 4592,710; 0,03596
1041,35; 4179,720;   -5,500; 4544,510; 0,03629
1041,89; 4123,350;   -4,250; 4478,600; 0,03586
1042,43; 4061,010;   -5,050; 4417,940; 0,03654
1042,97; 4010,970;   -4,750; 4351,610; 0,03536
1043,52; 3959,140;   -3,940; 4308,070; 0,03665
1044,06; 3907,450;   -5,560; 4245,710; 0,03601
1044,60; 3867,920;   -4,250; 4188,910; 0,03459
1045,14; 3824,270;   -4,950; 4129,900; 0,03335
1045,68; 3773,060;   -4,350; 4061,410; 0,03195
1046,22; 3738,250;   -4,900; 4006,850; 0,03010
1046,76; 3687,500;   -4,990; 3958,870; 0,03080
1047,30; 3637,930;   -4,640; 3895,600; 0,02968
1047,84; 3590,150;   -4,380; 3828,640; 0,02790
1048,38; 3542,440;   -4,280; 3788,020; 0,02908
1048,92; 3500,730;   -4,880; 3731,870; 0,02773
1049,46; 3448,630;   -4,270; 3686,440; 0,02893
1050,00; 3396,540;   -4,470; 3634,290; 0,02935
1050,55; 3353,790;   -4,320; 3579,600; 0,02826
1051,09; 3304,890;   -4,700; 3539,690; 0,02977
1051,63; 3255,050;   -4,280; 3492,060; 0,03049
1052,17; 3211,640;   -4,310; 3452,260; 0,03134
1052,71; 3157,690;   -5,500; 3403,120; 0,03245
1053,25; 3110,190;   -4,490; 3358,010; 0,03325
1053,79; 3054,630;   -4,370; 3301,910; 0,03376
1054,33; 2997,110;   -4,310; 3256,210; 0,03596
1054,87; 2950,310;   -5,140; 3209,380; 0,03649
1055,41; 2908,700;   -5,260; 3165,760; 0,03672
1055,95; 2846,080;   -4,590; 3103,960; 0,03761
1056,49; 2798,640;   -5,180; 3057,370; 0,03833
1057,03; 2752,380;   -4,910; 3006,450; 0,03828
1057,57; 2707,500;   -4,480; 2964,220; 0,03928
1058,11; 2673,510;   -5,180; 2923,470; 0,03875
1058,64; 2634,940;   -4,640; 2890,640; 0,04016
1059,18; 2593,960;   -4,430; 2843,020; 0,03975
1059,72; 2560,030;   -5,430; 2807,990; 0,04007
1060,26; 2527,080;   -4,040; 2768,640; 0,03959
1060,80; 2489,220;   -4,990; 2729,140; 0,03989
1061,34; 2457,750;   -4,700; 2693,730; 0,03974
1061,88; 2428,820;   -4,220; 2652,380; 0,03818
1062,42; 2393,800;   -4,840; 2614,060; 0,03815
1062,96; 2362,740;   -4,790; 2578,890; 0,03794
1063,50; 2332,880;   -5,240; 2545,680; 0,03783
1064,04; 2308,210;   -4,980; 2515,610; 0,03729
1064,58; 2281,390;   -4,100; 2486,600; 0,03734
1065,12; 2258,050;   -4,690; 2464,450; 0,03791
1065,65; 2230,530;   -4,080; 2428,750; 0,03691
1066,19; 2196,030;   -4,630; 2403,100; 0,03905
1066,73; 2171,180;   -4,850; 2366,170; 0,03727
1067,27; 2140,000;   -4,930; 2335,700; 0,03792
1067,81; 2117,360;   -4,990; 2307,740; 0,03731
1068,35; 2084,590;   -4,320; 2271,840; 0,03728
1068,89; 2060,160;   -5,170; 2244,320; 0,03709
1069,43; 2034,850;   -5,060; 2210,310; 0,03584
1069,96; 2008,090;   -4,780; 2187,850; 0,03715
1070,50; 1986,840;   -4,360; 2161,050; 0,03643
1071,04; 1953,170;   -4,010; 2131,270; 0,03782
1071,58; 1935,460;   -5,220; 2104,320; 0,03623
1072,12; 1904,550;   -5,020; 2078,060; 0,03777
1072,66; 1887,060;   -3,980; 2056,960; 0,03736
1073,19; 1862,950;   -4,480; 2029,320; 0,03706
1073,73; 1837,320;   -4,860; 2003,110; 0,03743
1074,27; 1818,840;   -4,350; 1979,530; 0,03668
1074,81; 1794,380;   -4,470; 1957,740; 0,03775
1075,35; 1776,220;   -4,520; 1927,560; 0,03542
1075,88; 1750,590;   -5,260; 1899,520; 0,03536
1076,42; 1725,580;   -4,060; 1874,860; 0,03595
1076,96; 1701,640;   -4,660; 1854,490; 0,03726
1077,50; 1675,540;   -5,020; 1823,780; 0,03671
1078,04; 1654,380;   -4,330; 1795,310; 0,03542
1078,57; 1635,260;   -4,840; 1778,960; 0,03648
1079,11; 1614,270;   -4,860; 1747,380; 0,03431
1079,65; 1592,440;   -4,270; 1723,680; 0,03431
1080,19; 1569,430;   -5,640; 1698,780; 0,03428
1080,72; 1546,380;   -4,590; 1672,210; 0,03388
1081,26; 1520,930;   -4,490; 1648,400; 0,03485
1081,80; 1499,520;   -5,240; 1622,150; 0,03402
1082,33; 1474,640;   -4,970; 1603,700; 0,03632
1082,87; 1454,440;   -5,510; 1582,350; 0,03647
1083,41; 1431,160;   -4,490; 1554,670; 0,03584
1083,95; 1411,480;   -4,630; 1538,770; 0,03738
1084,48; 1393,050;   -4,560; 1515,750; 0,03655
1085,02; 1366,990;   -4,440; 1497,360; 0,03944
1085,56; 1345,130;   -5,260; 1471,550; 0,03887
1086,09; 1326,440;   -4,650; 1451,650; 0,03904
1086,63; 1304,430;   -4,840; 1431,440; 0,04021
1087,17; 1282,870;   -5,170; 1409,030; 0,04058
1087,70; 1265,080;   -4,430; 1385,090; 0,03923
1088,24; 1244,740;   -4,760; 1363,970; 0,03958
1088,78; 1221,150;   -4,760; 1339,750; 0,04011
1089,31; 1201,110;   -4,870; 1316,580; 0,03971
1089,85; 1182,240;   -5,010; 1297,170; 0,04013
1090,39; 1159,530;   -5,030; 1273,110; 0,04042
1090,92; 1138,480;   -4,570; 1251,220; 0,04085
1091,46; 1114,790;   -4,670; 1234,310; 0,04406
1092,00; 1100,120;   -4,520; 1211,350; 0,04167
1092,53; 1079,590;   -4,660; 1188,420; 0,04154
1093,07; 1063,500;   -5,080; 1171,680; 0,04188
1093,60; 1044,330;   -5,000; 1151,070; 0,04207
1094,14; 1029,290;   -4,250; 1134,040; 0,04193
1094,68; 1013,260;   -4,000; 1115,970; 0,04177
1095,21;  996,820;   -4,810; 1095,700; 0,04089
1095,75;  977,050;   -4,740; 1080,190; 0,04338
1096,28;  963,400;   -4,680; 1060,330; 0,04144
1096,82;  944,610;   -5,070; 1047,030; 0,04448
1097,36;  928,780;   -4,610; 1028,860; 0,04423
1097,89;  916,330;   -5,330; 1016,770; 0,04492
1098,43;  902,860;   -4,640; 1002,060; 0,04505
1098,96;  887,720;   -4,670;  984,650; 0,04478
1099,50;  876,520;   -4,260;  966,950; 0,04245
1100,03;  856,500;   -4,720;  954,320; 0,04672

