AE-579-10-1
Integration time [ms]:   9,690
Averaging Nr. [scans]: 100
Smoothing Nr. [pixels]: 0
Data measured with spectrometer [name]: 7420287SP
Wave   ;Sample   ;Dark     ;Reference;Absorbance
[nm]   ;[counts] ;[counts] ;[counts] ;[A.U]

 179,38;  -45,073;   -5,510;  -10,773; 0,00000
 179,98;  -46,040;   -7,560;  -14,039; 0,00000
 180,58;  -34,738;   -5,400;   -5,696; 0,00000
 181,18;  -41,355;   -7,110;  -10,754; 0,00000
 181,78;  -53,425;   -6,960;  -21,053; 0,00000
 182,38;  -56,053;   -5,400;  -25,243; 0,00000
 182,97;  -52,768;   -7,960;  -21,961; 0,00000
 183,57;  -55,183;   -6,410;  -24,173; 0,00000
 184,17;  -67,975;   -6,540;  -34,730; 0,00000
 184,77;  -67,813;   -7,820;  -38,557; 0,00000
 185,37;  -76,088;   -5,920;  -46,488; 0,00000
 185,97;  -82,020;   -8,520;  -50,106; 0,00000
 186,57;  -79,425;   -6,680;  -51,028; 0,00000
 187,17;  -92,135;   -6,290;  -59,394; 0,00000
 187,77; -114,808;   -8,000;  -85,055; 0,00000
 188,37; -104,773;   -6,070;  -74,778; 0,00000
 188,97; -126,808;   -7,720;  -96,892; 0,00000
 189,57; -126,753;   -7,160;  -96,281; 0,00000
 190,17; -145,360;   -6,190; -116,399; 0,00000
 190,77; -151,923;   -8,630; -122,912; 0,00000
 191,37; -167,290;   -6,090; -139,755; 0,00000
 191,96; -181,630;   -6,910; -151,213; 0,00000
 192,56; -215,900;   -7,470; -188,826; 0,00000
 193,16; -207,965;   -6,460; -178,574; 0,00000
 193,76; -183,480;   -7,750; -155,940; 0,00000
 194,36; -235,358;   -6,560; -207,634; 0,00000
 194,96; -241,175;   -7,270; -209,216; 0,00000
 195,56; -190,190;   -7,540; -162,883; 0,00000
 196,16; -150,105;   -5,910; -119,762; 0,00000
 196,76;  -99,198;   -7,500;  -66,781; 0,00000
 197,36;  -85,443;   -6,550;  -55,672; 0,00000
 197,95;  -65,398;   -5,560;  -32,191; 0,00000
 198,55;  -71,340;   -6,760;  -40,997; 0,00000
 199,15;  -65,308;   -4,730;  -33,254; 0,00000
 199,75;  -54,075;   -7,550;  -21,460; 0,00000
 200,35;  -65,825;   -6,290;  -35,093; 0,00000
 200,95;  -58,753;   -6,180;  -27,480; 0,00000
 201,55;  -58,583;   -7,070;  -26,273; 0,00000
 202,15;  -59,318;   -4,970;  -28,628; 0,00000
 202,74;  -46,918;   -6,990;  -13,758; 0,00000
 203,34;  -56,658;   -6,680;  -25,170; 0,00000
 203,94;  -40,105;   -5,500;   -7,405; 0,00000
 204,54;  -55,435;   -7,380;  -23,985; 0,00000
 205,14;  -45,968;   -5,970;  -13,087; 0,00000
 205,74;  -51,993;   -6,720;  -20,187; 0,00000
 206,34;  -48,795;   -6,730;  -17,100; 0,00000
 206,93;  -45,965;   -6,030;  -14,536; 0,00000
 207,53;  -49,625;   -7,240;  -18,083; 0,00000
 208,13;  -52,213;   -5,230;  -18,337; 0,00000
 208,73;  -43,325;   -5,770;  -11,915; 0,00000
 209,33;  -59,788;   -6,910;  -28,426; 0,00000
 209,93;  -47,780;   -4,630;  -14,751; 0,00000
 210,52;  -51,085;   -6,190;  -17,746; 0,00000
 211,12;  -38,078;   -5,880;   -5,881; 0,00000
 211,72;  -47,260;   -5,160;  -13,774; 0,00000
 212,32;  -44,353;   -6,840;  -10,810; 0,00000
 212,92;  -47,525;   -4,490;  -15,569; 0,00000
 213,52;  -47,858;   -5,650;  -13,973; 0,00000
 214,11;  -49,433;   -6,390;  -15,901; 0,00000
 214,71;  -41,368;   -4,220;   -4,908; 0,00000
 215,31;  -51,533;   -6,920;  -16,938; 0,00000
 215,91;  -30,290;   -4,060;    2,884; 5,00000
 216,51;  -45,190;   -5,580;  -10,339; 0,00000
 217,10;  -44,573;   -6,220;  -10,583; 0,00000
 217,70;  -51,853;   -4,180;  -17,045; 0,00000
 218,30;  -40,350;   -6,920;   -4,034; 5,00000
 218,90;  -49,595;   -4,740;  -14,829; 0,00000
 219,50;  -39,293;   -4,980;   -3,949; 5,00000
 220,09;  -37,845;   -6,040;   -4,023; 5,00000
 220,69;  -39,930;   -3,760;   -5,605; 0,00000
 221,29;  -37,115;   -5,910;   -2,190; 5,00000
 221,89;  -55,970;   -4,620;  -20,883; 0,00000
 222,49;  -41,693;   -3,970;   -3,523; 0,00000
 223,08;  -40,048;   -6,650;   -2,968; 5,00000
 223,68;  -37,565;   -3,870;   -0,370; 5,00000
 224,28;  -49,400;   -5,590;  -10,228; 0,00000
 224,88;  -44,515;   -4,930;   -8,752; 0,00000
 225,47;  -49,903;   -4,040;  -11,203; 0,00000
 226,07;  -40,278;   -6,140;   -1,045; 5,00000
 226,67;  -47,248;   -3,750;   -8,240; 0,00000
 227,27;  -39,970;   -5,840;   -1,112; 5,00000
 227,87;  -46,370;   -4,960;   -8,471; 0,00000
 228,46;  -39,220;   -3,590;   -3,529; 0,00000
 229,06;  -49,613;   -5,710;  -10,105; 0,00000
 229,66;  -37,888;   -4,880;   -0,245; 5,00000
 230,26;  -47,938;   -4,410;  -10,954; 0,00000
 230,85;  -52,015;   -6,040;  -16,964; 0,00000
 231,45;  -51,493;   -4,240;  -12,247; 0,00000
 232,05;  -45,225;   -5,320;   -3,882; 5,00000
 232,64;  -55,105;   -4,510;  -14,511; 0,00000
 233,24;  -58,388;   -3,880;  -19,950; 0,00000
 233,84;  -63,103;   -6,440;  -22,596; 0,00000
 234,44;  -54,200;   -4,030;  -14,860; 0,00000
 235,03;  -71,728;   -5,150;  -31,867; 0,00000
 235,63;  -60,733;   -5,500;  -20,179; 0,00000
 236,23;  -47,055;   -4,390;   -5,443; 0,00000
 236,83;  -48,460;   -5,530;   -8,482; 0,00000
 237,42;  -49,175;   -3,980;   -8,787; 0,00000
 238,02;  -65,845;   -5,210;  -23,572; 0,00000
 238,62;  -46,528;   -5,700;   -6,931; 0,00000
 239,21;  -52,128;   -4,270;  -10,389; 0,00000
 239,81;  -51,908;   -6,090;   -8,235; 0,00000
 240,41;  -52,610;   -4,720;  -12,467; 0,00000
 241,00;  -55,015;   -4,410;  -11,805; 0,00000
 241,60;  -56,213;   -5,710;  -13,445; 0,00000
 242,20;  -52,658;   -3,410;   -9,902; 0,00000
 242,80;  -54,648;   -4,870;   -9,519; 0,00000
 243,39;  -43,170;   -5,400;   -0,868; 5,00000
 243,99;  -57,040;   -4,520;  -12,498; 0,00000
 244,59;  -54,780;   -6,210;  -10,480; 0,00000
 245,18;  -55,255;   -3,750;   -9,455; 0,00000
 245,78;  -58,148;   -6,310;  -13,693; 0,00000
 246,38;  -58,205;   -6,310;  -14,805; 0,00000
 246,97;  -43,883;   -4,220;    0,009; 5,00000
 247,57;  -43,253;   -6,180;    2,993; 5,00000
 248,17;  -46,015;   -5,050;    2,348; 5,00000
 248,76;  -50,105;   -4,510;   -1,453; 5,00000
 249,36;  -43,378;   -6,960;    4,238; 5,00000
 249,96;  -46,803;   -4,270;    1,829; 5,00000
 250,55;  -36,295;   -6,540;   15,904; 5,00000
 251,15;  -44,858;   -4,960;    2,687; 5,00000
 251,75;  -41,730;   -4,280;    9,488; 5,00000
 252,34;  -46,518;   -6,450;    5,827; 5,00000
 252,94;  -32,490;   -4,540;   20,223; 5,00000
 253,54;  -49,918;   -5,920;    3,023; 5,00000
 254,13;  -43,638;   -5,140;    8,834; 5,00000
 254,73;  -27,760;   -5,020;   24,527; 5,00000
 255,32;  -53,305;   -7,020;    1,010; 5,00000
 255,92;  -38,530;   -4,860;   15,732; 5,00000
 256,52;  -44,530;   -5,400;   11,083; 5,00000
 257,11;  -43,008;   -6,640;   12,451; 5,00000
 257,71;  -26,928;   -5,060;   28,512; 5,00000
 258,31;  -40,455;   -6,500;   17,066; 5,00000
 258,90;  -42,510;   -5,510;   12,676; 5,00000
 259,50;  -38,403;   -5,490;   20,974; 5,00000
 260,09;  -40,895;   -6,020;   16,302; 5,00000
 260,69;  -38,005;   -4,440;   21,276; 5,00000
 261,29;  -37,425;   -6,440;   22,843; 5,00000
 261,88;  -40,578;   -5,080;   20,998; 5,00000
 262,48;  -39,920;   -4,640;   24,005; 5,00000
 263,07;  -45,835;   -6,620;   17,985; 5,00000
 263,67;  -38,780;   -4,310;   25,935; 5,00000
 264,27;  -30,023;   -5,770;   37,713; 5,00000
 264,86;  -35,395;   -5,750;   29,277; 5,00000
 265,46;  -34,253;   -4,320;   33,398; 5,00000
 266,05;  -27,550;   -6,570;   42,541; 5,00000
 266,65;  -34,600;   -4,800;   35,369; 5,00000
 267,24;  -35,675;   -5,360;   36,890; 5,00000
 267,84;  -34,628;   -5,900;   35,566; 5,00000
 268,44;  -45,393;   -4,240;   28,769; 5,00000
 269,03;  -37,590;   -6,010;   39,309; 5,00000
 269,63;  -35,655;   -4,720;   40,777; 5,00000
 270,22;  -35,060;   -5,220;   45,626; 5,00000
 270,82;  -38,308;   -6,450;   44,162; 5,00000
 271,41;  -35,245;   -3,750;   48,537; 5,00000
 272,01;  -47,315;   -6,510;   38,991; 5,00000
 272,61;  -30,808;   -4,960;   58,358; 5,00000
 273,20;  -37,415;   -4,610;   53,060; 5,00000
 273,80;  -34,825;   -6,730;   59,964; 5,00000
 274,39;  -34,273;   -4,370;   63,885; 5,00000
 274,99;  -36,678;   -6,770;   64,032; 5,00000
 275,58;  -29,800;   -5,180;   73,430; 5,00000
 276,18;  -35,803;   -4,940;   71,397; 5,00000
 276,77;  -27,245;   -6,350;   82,441; 5,00000
 277,37;  -29,368;   -4,810;   80,272; 5,00000
 277,96;  -39,575;   -5,470;   79,778; 5,00000
 278,56;  -26,158;   -5,660;   94,656; 5,00000
 279,15;  -31,488;   -4,020;   96,211; 5,00000
 279,75;  -43,835;   -6,150;   85,836; 5,00000
 280,34;  -29,220;   -4,510;  109,048; 5,00000
 280,94;  -28,870;   -4,970;  120,238; 5,00000
 281,53;  -38,765;   -6,390;  122,117; 5,00000
 282,13;  -39,353;   -4,280;  147,497; 5,00000
 282,73;  -30,053;   -5,380;  188,847; 5,00000
 283,32;  -28,703;   -5,640;  232,317; 5,00000
 283,92;  -36,770;   -4,350;  283,665; 5,00000
 284,51;  -24,670;   -6,320;  381,456; 5,00000
 285,10;  -32,480;   -4,430;  489,236; 5,00000
 285,70;  -37,303;   -6,090;  640,475; 5,00000
 286,29;  -26,810;   -5,550;  850,908; 5,00000
 286,89;  -18,795;   -4,370; 1092,034; 5,00000
 287,48;  -37,168;   -6,270; 1329,606; 5,00000
 288,08;  -30,443;   -4,760; 1594,906; 5,00000
 288,67;  -32,925;   -5,150; 1837,077; 5,00000
 289,27;  -34,965;   -6,210; 2052,300; 5,00000
 289,86;  -21,423;   -3,940; 2243,997; 5,00000
 290,46;  -24,820;   -5,990; 2344,281; 5,00000
 291,05;  -21,555;   -4,410; 2382,049; 5,00000
 291,65;  -25,463;   -4,700; 2428,509; 5,00000
 292,24;  -21,315;   -6,200; 2608,542; 5,00000
 292,84;  -21,548;   -4,510; 3006,450; 5,00000
 293,43;  -16,975;   -5,640; 3654,508; 5,00000
 294,03;  -13,070;   -5,470; 4519,182; 5,00000
 294,62;   -7,493;   -4,280; 5522,385; 5,00000
 295,21;    5,607;   -6,830; 6595,019; 2,72493
 295,81;   21,110;   -4,050; 7666,649; 2,48412
 296,40;   26,862;   -6,200; 8624,504; 2,41671
 297,00;   60,732;   -5,550; 9441,023; 2,15388
 297,59;   84,757;   -4,790; 9961,349; 2,04647
 298,19;  123,600;   -6,420;10303,028; 1,89923
 298,78;  142,465;   -4,370;10862,887; 1,86929
 299,37;  186,460;   -4,960;11764,025; 1,78875
 299,97;  253,962;   -6,140;12595,415; 1,68528
 300,56;  288,942;   -3,490;13154,481; 1,65316
 301,16;  338,415;   -6,530;13577,386; 1,59528
 301,75;  383,272;   -5,770;13909,371; 1,55349
 302,35;  428,165;   -4,680;14270,453; 1,51825
 302,94;  478,807;   -6,210;14609,013; 1,47905
 303,53;  544,785;   -3,580;14894,959; 1,43407
 304,13;  594,357;   -5,560;15074,090; 1,40030
 304,72;  643,400;   -4,940;15284,300; 1,37258
 305,32;  698,900;   -4,140;15484,771; 1,34304
 305,91;  738,937;   -6,270;15599,771; 1,32102
 306,50;  789,568;   -4,680;15690,743; 1,29582
 307,10;  838,342;   -5,460;15795,702; 1,27245
 307,69;  875,667;   -5,650;15822,440; 1,25430
 308,28;  908,880;   -4,100;15812,134; 1,23864
 308,88;  945,397;   -6,020;15780,169; 1,21991
 309,47;  964,737;   -4,210;15668,286; 1,20884
 310,07;  985,415;   -5,230;15562,354; 1,19630
 310,66; 1008,565;   -5,940;15443,031; 1,18265
 311,25; 1051,100;   -3,730;15400,814; 1,16447
 311,85; 1077,155;   -6,830;15389,276; 1,15239
 312,44; 1124,170;   -5,120;15390,343; 1,13459
 313,03; 1185,417;   -5,040;15420,146; 1,11252
 313,63; 1249,470;   -6,220;15440,983; 1,08997
 314,22; 1314,432;   -4,420;15415,637; 1,06789
 314,81; 1385,042;   -5,240;15374,990; 1,04386
 315,41; 1468,438;   -4,750;15345,303; 1,01785
 316,00; 1543,000;   -4,570;15298,497; 0,99513
 316,59; 1626,890;   -6,620;15234,142; 0,96988
 317,19; 1726,520;   -4,770;15176,666; 0,94294
 317,78; 1818,860;   -5,810;15152,919; 0,91948
 318,37; 1934,703;   -5,700;15244,260; 0,89538
 318,97; 2043,713;   -3,560;15411,671; 0,87677
 319,56; 2193,485;   -6,280;15686,967; 0,85334
 320,15; 2335,595;   -4,840;15992,626; 0,83475
 320,75; 2477,205;   -4,440;16309,043; 0,81781
 321,34; 2623,970;   -6,230;16598,141; 0,80023
 321,93; 2781,175;   -4,770;16913,506; 0,78338
 322,53; 2909,685;   -5,810;17219,916; 0,77147
 323,12; 3044,407;   -4,780;17477,910; 0,75842
 323,71; 3181,913;   -4,200;17708,648; 0,74503
 324,31; 3318,020;   -6,210;17942,926; 0,73235
 324,90; 3450,768;   -4,180;18181,295; 0,72128
 325,49; 3580,950;   -5,550;18402,805; 0,71034
 326,09; 3701,530;   -5,270;18592,588; 0,70046
 326,68; 3826,445;   -4,780;18753,965; 0,68987
 327,27; 3942,705;   -6,450;18889,613; 0,67987
 327,86; 4065,200;   -4,200;19019,006; 0,66975
 328,46; 4172,125;   -5,420;19132,777; 0,66098
 329,05; 4296,467;   -5,580;19206,730; 0,64990
 329,64; 4397,802;   -4,890;19258,461; 0,64101
 330,23; 4512,288;   -6,700;19296,881; 0,63060
 330,83; 4565,808;   -4,320;19229,654; 0,62414
 331,42; 4663,865;   -4,510;19134,248; 0,61275
 332,01; 4703,197;   -6,670;18973,580; 0,60529
 332,61; 4735,063;   -4,760;18719,822; 0,59665
 333,20; 4741,962;   -5,730;18474,117; 0,59022
 333,79; 4783,770;   -4,390;18310,412; 0,58263
 334,38; 4867,530;   -4,600;18288,877; 0,57458
 334,98; 4962,263;   -6,490;18375,656; 0,56815
 335,57; 5088,723;   -3,760;18533,775; 0,56112
 336,16; 5186,235;   -5,400;18592,311; 0,55416
 336,75; 5281,895;   -5,140;18639,924; 0,54735
 337,34; 5334,422;   -4,230;18595,539; 0,54208
 337,94; 5371,950;   -6,280;18518,105; 0,53710
 338,53; 5408,995;   -4,790;18426,543; 0,53206
 339,12; 5425,875;   -5,620;18287,164; 0,52736
 339,71; 5453,268;   -6,020;18140,326; 0,52165
 340,31; 5446,808;   -4,400;17980,869; 0,51842
 340,90; 5428,235;   -6,870;17734,242; 0,51377
 341,49; 5344,170;   -4,330;17331,355; 0,51071
 342,08; 5227,760;   -5,270;16812,941; 0,50703
 342,67; 5140,605;   -6,160;16427,877; 0,50421
 343,27; 5137,300;   -3,980;16358,059; 0,50277
 343,86; 5229,438;   -5,860;16523,768; 0,49932
 344,45; 5338,263;   -5,620;16778,004; 0,49703
 345,04; 5424,965;   -4,550;16926,484; 0,49392
 345,63; 5470,578;   -6,470;16995,326; 0,49195
 346,23; 5512,498;   -3,610;17005,723; 0,48905
 346,82; 5505,275;   -5,530;16952,072; 0,48815
 347,41; 5520,402;   -5,820;16900,480; 0,48562
 348,00; 5507,272;   -4,800;16744,275; 0,48268
 348,59; 5465,587;   -6,400;16561,121; 0,48111
 349,19; 5443,152;   -4,240;16448,598; 0,48005
 349,78; 5440,302;   -4,880;16368,474; 0,47813
 350,37; 5433,885;   -5,690;16259,348; 0,47569
 350,96; 5407,070;   -3,670;16130,479; 0,47449
 351,55; 5366,757;   -5,790;15985,678; 0,47371
 352,14; 5339,435;   -4,690;15830,997; 0,47176
 352,74; 5291,255;   -5,240;15644,391; 0,47052
 353,33; 5220,740;   -6,170;15377,396; 0,46881
 353,92; 5134,917;   -4,710;15122,926; 0,46884
 354,51; 5049,500;   -6,360;14839,582; 0,46781
 355,10; 4986,440;   -5,400;14586,872; 0,46586
 355,69; 4915,322;   -3,930;14383,051; 0,46607
 356,28; 4932,285;   -6,200;14369,546; 0,46404
 356,88; 4956,152;   -5,220;14397,774; 0,46285
 357,47; 5022,025;   -5,880;14481,051; 0,45959
 358,06; 5066,402;   -5,620;14556,044; 0,45803
 358,65; 5085,913;   -4,040;14574,642; 0,45700
 359,24; 5076,993;   -6,190;14546,938; 0,45682
 359,83; 5091,370;   -4,530;14486,629; 0,45388
 360,42; 5078,868;   -4,970;14406,809; 0,45253
 361,01; 5081,080;   -5,580;14335,448; 0,45015
 361,61; 5049,552;   -4,820;14219,949; 0,44938
 362,20; 5030,880;   -5,890;14123,874; 0,44798
 362,79; 4989,072;   -4,730;13939,354; 0,44596
 363,38; 4925,013;   -4,580;13716,135; 0,44457
 363,97; 4830,290;   -6,030;13388,054; 0,44240
 364,56; 4686,990;   -3,890;12944,948; 0,44098
 365,15; 4581,993;   -5,990;12649,014; 0,44064
 365,74; 4648,470;   -4,980;12748,966; 0,43787
 366,33; 4823,837;   -4,740;13132,142; 0,43467
 366,92; 4952,380;   -6,590;13421,214; 0,43261
 367,51; 5007,563;   -3,400;13527,996; 0,43142
 368,11; 5001,817;   -5,330;13457,836; 0,42956
 368,70; 5021,445;   -5,950;13419,267; 0,42658
 369,29; 5046,263;   -3,890;13413,050; 0,42435
 369,88; 4989,450;   -5,910;13229,327; 0,42316
 370,47; 4945,362;   -4,670;13067,463; 0,42174
 371,06; 4945,473;   -5,630;12985,483; 0,41894
 371,65; 4953,288;   -6,140;12949,786; 0,41704
 372,24; 4923,567;   -4,280;12836,595; 0,41594
 372,83; 4893,655;   -6,770;12709,632; 0,41413
 373,42; 4863,200;   -5,180;12579,914; 0,41247
 374,01; 4836,315;   -4,930;12487,080; 0,41168
 374,60; 4855,890;   -6,020;12473,518; 0,40939
 375,19; 4858,167;   -4,300;12470,964; 0,40919
 375,78; 4857,103;   -5,730;12428,613; 0,40773
 376,37; 4893,115;   -5,690;12499,771; 0,40701
 376,96; 5016,272;   -4,100;12744,948; 0,40474
 377,55; 5147,677;   -6,230;13046,632; 0,40357
 378,14; 5282,875;   -4,190;13350,667; 0,40242
 378,73; 5420,127;   -5,160;13637,321; 0,40047
 379,32; 5493,620;   -6,060;13791,153; 0,39945
 379,91; 5398,447;   -4,170;13527,798; 0,39876
 380,50; 5382,120;   -6,310;13420,151; 0,39650
 381,09; 5292,330;   -4,660;13230,006; 0,39768
 381,68; 5264,275;   -4,690;13119,203; 0,39634
 382,27; 5316,575;   -5,860;13219,174; 0,39529
 382,86; 5300,560;   -4,360;13147,425; 0,39431
 383,45; 5212,840;   -6,280;12903,881; 0,39333
 384,04; 5126,158;   -5,120;12675,745; 0,39292
 384,63; 4977,665;   -4,860;12283,930; 0,39206
 385,22; 4841,590;   -6,360;11946,786; 0,39192
 385,81; 4851,845;   -4,090;11974,736; 0,39214
 386,40; 4987,407;   -5,970;12289,634; 0,39136
 386,99; 5204,340;   -5,240;12790,183; 0,39025
 387,58; 5359,675;   -4,100;13148,157; 0,38953
 388,17; 5464,200;   -6,130;13376,098; 0,38851
 388,76; 5443,907;   -4,370;13352,338; 0,38944
 389,35; 5299,500;   -5,320;12984,016; 0,38892
 389,94; 5278,065;   -5,650;12920,808; 0,38854
 390,53; 5294,210;   -4,040;13003,771; 0,39007
 391,12; 5356,417;   -6,020;13143,115; 0,38953
 391,71; 5529,288;   -4,950;13503,889; 0,38756
 392,30; 5760,377;   -5,100;14049,748; 0,38699
 392,89; 5869,127;   -5,700;14264,843; 0,38545
 393,48; 5568,565;   -4,760;13572,723; 0,38670
 394,07; 5335,538;   -5,830;12992,976; 0,38625
 394,66; 5272,978;   -5,410;12821,740; 0,38563
 395,25; 5193,760;   -4,740;12649,144; 0,38635
 395,84; 5159,585;   -6,630;12550,258; 0,38571
 396,43; 5236,720;   -4,350;12720,665; 0,38524
 397,01; 5396,643;   -5,980;13092,638; 0,38462
 397,60; 5688,685;   -4,850;13763,939; 0,38351
 398,19; 5931,388;   -4,460;14318,890; 0,38256
 398,78; 5863,308;   -6,650;14131,125; 0,38175
 399,37; 5593,550;   -4,360;13462,778; 0,38125
 399,96; 5383,150;   -5,210;12943,043; 0,38075
 400,55; 5267,275;   -5,710;12716,579; 0,38251
 401,14; 5233,158;   -4,200;12613,276; 0,38186
 401,73; 5093,438;   -5,810;12332,224; 0,38374
 402,32; 5051,143;   -4,060;12206,871; 0,38301
 402,91; 5020,095;   -5,240;12126,987; 0,38278
 403,49; 5011,808;   -6,320;12078,089; 0,38168
 404,08; 4998,462;   -4,410;12092,354; 0,38345
 404,67; 5037,850;   -5,900;12143,049; 0,38179
 405,26; 5002,455;   -5,010;12058,996; 0,38187
 405,85; 4791,558;   -4,240;11584,196; 0,38316
 406,44; 4541,765;   -6,140;11005,056; 0,38402
 407,03; 4483,192;   -3,790;10851,094; 0,38367
 407,62; 4512,425;   -5,430;10957,511; 0,38499
 408,20; 4675,080;   -5,790;11369,509; 0,38564
 408,79; 4736,735;   -4,380;11500,753; 0,38501
 409,38; 4657,598;   -6,100;11370,734; 0,38729
 409,97; 4553,107;   -4,180;11136,461; 0,38820
 410,56; 4347,930;   -3,910;10720,518; 0,39170
 411,15; 4252,260;   -5,640;10519,402; 0,39303
 411,73; 4185,740;   -4,530;10363,529; 0,39346
 412,32; 4157,737;   -5,870;10364,057; 0,39631
 412,91; 4105,942;   -5,590;10293,842; 0,39881
 413,50; 4031,230;   -4,880;10136,052; 0,40011
 414,09; 3900,692;   -5,880; 9850,479; 0,40192
 414,68; 3794,830;   -4,010; 9646,101; 0,40488
 415,26; 3769,712;   -6,410; 9623,129; 0,40656
 415,85; 3827,018;   -4,660; 9793,142; 0,40774
 416,44; 3901,502;   -4,690;10018,855; 0,40927
 417,03; 3922,300;   -5,940;10114,478; 0,41100
 417,62; 3955,992;   -4,450;10261,721; 0,41366
 418,21; 3995,552;   -5,060;10399,108; 0,41508
 418,79; 4058,185;   -5,210;10622,955; 0,41757
 419,38; 4121,970;   -3,760;10817,274; 0,41877
 419,97; 4207,507;   -6,270;11107,787; 0,42120
 420,56; 4414,772;   -4,780;11717,830; 0,42365
 421,15; 4694,645;   -4,960;12475,202; 0,42416
 421,73; 4747,612;   -5,630;12691,927; 0,42673
 422,32; 4449,782;   -4,310;11994,148; 0,43037
 422,91; 4185,625;   -6,200;11343,890; 0,43260
 423,50; 4022,317;   -5,070;10975,196; 0,43559
 424,08; 3938,785;   -5,300;10824,325; 0,43867
 424,67; 3923,748;   -6,580;10830,971; 0,44050
 425,26; 3823,238;   -3,900;10600,790; 0,44262
 425,85; 3650,103;   -5,670;10190,276; 0,44545
 426,43; 3590,880;   -4,950;10126,806; 0,44989
 427,02; 3675,157;   -3,950;10408,375; 0,45181
 427,61; 3701,502;   -6,190;10571,402; 0,45528
 428,20; 3746,625;   -4,610;10736,313; 0,45687
 428,79; 3924,485;   -5,290;11327,122; 0,45995
 429,37; 4325,175;   -5,450;12517,814; 0,46117
 429,96; 4479,663;   -3,730;13043,339; 0,46391
 430,55; 4294,570;   -6,660;12560,958; 0,46566
 431,13; 3878,580;   -4,740;11404,849; 0,46807
 431,72; 3448,300;   -5,010;10251,057; 0,47275
 432,31; 3313,115;   -5,740; 9882,698; 0,47414
 432,90; 3446,952;   -3,190;10309,324; 0,47553
 433,48; 3828,690;   -6,260;11461,981; 0,47574
 434,07; 3629,843;   -4,620;10922,533; 0,47807
 434,66; 3365,875;   -4,710;10217,992; 0,48186
 435,25; 3320,145;   -5,610;10133,616; 0,48411
 435,83; 3291,547;   -4,400;10144,009; 0,48842
 436,42; 3336,375;   -5,340;10286,367; 0,48852
 437,01; 3176,850;   -4,860; 9806,583; 0,48907
 437,59; 3108,020;   -4,040; 9657,972; 0,49202
 438,18; 3164,022;   -6,070; 9845,942; 0,49245
 438,77; 3150,715;   -4,590; 9839,709; 0,49414
 439,35; 3067,677;   -5,960; 9625,876; 0,49606
 439,94; 3002,985;   -4,870; 9517,284; 0,50048
 440,53; 3179,025;   -4,440;10133,321; 0,50304
 441,11; 3542,345;   -6,390;11259,519; 0,50169
 441,70; 3502,833;   -5,150;11192,398; 0,50407
 442,29; 3366,555;   -4,570;10778,276; 0,50496
 442,87; 3382,262;   -5,310;10932,536; 0,50904
 443,46; 3454,647;   -3,750;11102,226; 0,50668
 444,05; 3309,980;   -5,760;10722,903; 0,50997
 444,63; 3239,333;   -4,790;10515,734; 0,51094
 445,22; 3150,210;   -4,300;10267,291; 0,51271
 445,81; 3105,248;   -5,290;10154,400; 0,51405
 446,39; 3137,730;   -4,530;10254,332; 0,51386
 446,98; 2966,462;   -6,140; 9789,022; 0,51787
 447,57; 2855,280;   -4,950; 9454,917; 0,51948
 448,15; 2771,610;   -4,540; 9249,905; 0,52291
 448,74; 2805,300;   -6,770; 9392,277; 0,52406
 449,33; 2813,290;   -4,210; 9462,422; 0,52633
 449,91; 2779,450;   -5,700; 9385,659; 0,52788
 450,50; 2741,410;   -5,960; 9250,336; 0,52752
 451,08; 2655,922;   -4,360; 9037,916; 0,53135
 451,67; 2679,690;   -6,090; 9131,010; 0,53174
 452,26; 2614,620;   -4,400; 8944,574; 0,53363
 452,84; 2512,282;   -5,160; 8599,175; 0,53376
 453,43; 2412,958;   -5,490; 8289,420; 0,53528
 454,02; 2377,708;   -4,460; 8189,224; 0,53651
 454,60; 2400,480;   -5,500; 8329,680; 0,53962
 455,19; 2494,835;   -5,040; 8668,114; 0,54026
 455,77; 2389,625;   -4,750; 8309,398; 0,54063
 456,36; 2307,795;   -6,110; 8096,943; 0,54430
 456,95; 2383,383;   -3,940; 8325,853; 0,54272
 457,53; 2475,745;   -5,570; 8635,221; 0,54187
 458,12; 2474,375;   -5,320; 8641,623; 0,54246
 458,70; 2457,840;   -4,630; 8645,895; 0,54567
 459,29; 2492,087;   -5,940; 8778,078; 0,54610
 459,87; 2484,752;   -3,980; 8733,487; 0,54541
 460,46; 2434,995;   -4,210; 8595,817; 0,54725
 461,05; 2419,672;   -5,930; 8540,624; 0,54697
 461,63; 2182,982;   -3,930; 7715,275; 0,54774
 462,22; 2042,212;   -6,430; 7298,480; 0,55215
 462,80; 2062,430;   -4,610; 7405,735; 0,55449
 463,39; 2199,718;   -4,190; 7851,195; 0,55197
 463,97; 2240,422;   -5,870; 8005,507; 0,55224
 464,56; 2382,032;   -4,290; 8471,190; 0,55044
 465,14; 2485,445;   -5,460; 8889,102; 0,55277
 465,73; 2550,175;   -5,240; 9040,217; 0,54897
 466,31; 2224,643;   -4,390; 7988,398; 0,55458
 466,90; 2010,335;   -6,340; 7232,441; 0,55503
 467,49; 1939,535;   -4,000; 6981,139; 0,55558
 468,07; 1897,185;   -5,390; 6850,334; 0,55671
 468,66; 1791,670;   -5,300; 6477,199; 0,55720
 469,24; 1731,865;   -4,210; 6228,805; 0,55513
 469,83; 1670,338;   -5,610; 6040,442; 0,55721
 470,41; 1662,935;   -4,520; 6010,011; 0,55715
 471,00; 1650,973;   -5,450; 5950,109; 0,55575
 471,58; 1688,610;   -5,670; 6064,703; 0,55423
 472,17; 1728,917;   -4,290; 6194,145; 0,55343
 472,75; 1808,095;   -5,770; 6401,707; 0,54808
 473,34; 1846,945;   -4,670; 6578,553; 0,55089
 473,92; 1842,935;   -5,250; 6529,915; 0,54851
 474,51; 1913,100;   -5,970; 6732,175; 0,54545
 475,09; 2032,400;   -4,370; 7109,133; 0,54314
 475,68; 1929,463;   -5,730; 6751,372; 0,54304
 476,26; 1871,647;   -4,920; 6524,169; 0,54149
 476,85; 1797,655;   -4,140; 6279,104; 0,54248
 477,43; 1823,592;   -6,430; 6354,727; 0,54108
 478,01; 1938,042;   -4,670; 6665,300; 0,53572
 478,60; 1866,150;   -4,720; 6433,771; 0,53674
 479,18; 1912,800;   -5,210; 6544,706; 0,53338
 479,77; 2041,463;   -4,940; 6915,313; 0,52913
 480,35; 2082,827;   -5,700; 6960,491; 0,52316
 480,94; 2044,405;   -4,900; 6820,948; 0,52255
 481,52; 2162,445;   -5,770; 7118,651; 0,51665
 482,11; 2067,160;   -4,910; 6747,344; 0,51304
 482,69; 1956,105;   -3,280; 6356,161; 0,51130
 483,27; 1984,552;   -5,560; 6401,111; 0,50775
 483,86; 2110,015;   -4,780; 6741,065; 0,50377
 484,44; 2438,097;   -4,570; 7736,951; 0,50096
 485,03; 4057,347;   -5,740;12709,101; 0,49545
 485,61; 8278,548;   -4,420;24795,395; 0,47626
 486,20; 6075,765;   -5,360;18033,010; 0,47221
 486,78; 3133,925;   -4,430; 9463,612; 0,47956
 487,36; 2447,485;   -4,190; 7308,160; 0,47459
 487,95; 2044,422;   -6,230; 6074,567; 0,47207
 488,53; 1986,935;   -5,090; 5836,959; 0,46727
 489,12; 1953,382;   -5,650; 5674,179; 0,46229
 489,70; 1875,112;   -5,260; 5401,823; 0,45872
 490,28; 1847,032;   -3,670; 5307,428; 0,45785
 490,87; 1928,595;   -5,330; 5458,979; 0,45110
 491,45; 1934,372;   -4,010; 5425,870; 0,44735
 492,04; 1975,092;   -4,510; 5462,491; 0,44117
 492,62; 1988,360;   -6,300; 5448,078; 0,43688
 493,20; 2052,380;   -4,150; 5543,594; 0,43098
 493,79; 2078,833;   -5,730; 5569,333; 0,42723
 494,37; 2124,795;   -5,520; 5615,238; 0,42135
 494,95; 2028,145;   -4,790; 5321,480; 0,41830
 495,54; 2150,402;   -5,940; 5586,891; 0,41391
 496,12; 2467,432;   -3,930; 6291,216; 0,40607
 496,71; 2295,067;   -5,360; 5775,673; 0,40020
 497,29; 2036,645;   -5,370; 5114,288; 0,39918
 497,87; 2014,942;   -4,450; 5028,478; 0,39660
 498,46; 2097,510;   -6,380; 5183,750; 0,39216
 499,04; 2235,938;   -4,540; 5445,795; 0,38608
 499,62; 2321,860;   -5,100; 5600,604; 0,38184
 500,21; 2213,360;   -5,190; 5309,173; 0,37938
 500,79; 2324,355;   -4,330; 5514,451; 0,37473
 501,37; 2461,260;   -6,250; 5769,021; 0,36931
 501,96; 2507,027;   -4,530; 5788,821; 0,36299
 502,54; 2527,590;   -4,730; 5807,266; 0,36081
 503,12; 2569,180;   -5,590; 5844,167; 0,35640
 503,71; 2495,657;   -4,370; 5646,016; 0,35413
 504,29; 2456,612;   -6,130; 5499,790; 0,34941
 504,87; 2496,370;   -5,160; 5536,836; 0,34546
 505,45; 2516,292;   -3,960; 5526,486; 0,34132
 506,04; 2636,570;   -5,920; 5697,883; 0,33415
 506,62; 2578,657;   -4,200; 5505,618; 0,32904
 507,20; 2459,540;   -5,280; 5209,616; 0,32546
 507,79; 2577,330;   -5,350; 5374,643; 0,31871
 508,37; 2591,267;   -3,950; 5324,975; 0,31247
 508,95; 2461,505;   -6,380; 5025,741; 0,30943
 509,53; 2460,897;   -4,140; 4966,750; 0,30461
 510,12; 2485,637;   -4,610; 4958,702; 0,29953
 510,70; 2433,200;   -5,710; 4824,367; 0,29676
 511,28; 2402,407;   -3,020; 4704,010; 0,29155
 511,87; 2307,790;   -5,560; 4467,100; 0,28632
 512,45; 2344,745;   -4,170; 4484,370; 0,28124
 513,03; 2393,135;   -5,060; 4530,456; 0,27674
 513,61; 2328,052;   -5,190; 4392,975; 0,27531
 514,20; 2325,525;   -4,170; 4332,147; 0,26982
 514,78; 2231,937;   -4,890; 4132,000; 0,26704
 515,36; 2250,732;   -4,960; 4141,441; 0,26439
 515,94; 2392,862;   -4,640; 4351,190; 0,25931
 516,52; 2424,212;   -5,910; 4374,728; 0,25591
 517,11; 2361,137;   -4,280; 4214,439; 0,25127
 517,69; 2302,892;   -4,750; 4095,061; 0,24960
 518,27; 2353,512;   -5,270; 4137,637; 0,24462
 518,85; 2543,195;   -4,350; 4381,610; 0,23594
 519,44; 2456,103;   -6,290; 4223,359; 0,23495
 520,02; 2327,042;   -4,520; 3964,128; 0,23100
 520,60; 2359,662;   -5,070; 4003,571; 0,22922
 521,18; 2441,063;   -4,950; 4126,305; 0,22762
 521,76; 2448,505;   -4,220; 4101,969; 0,22379
 522,35; 2593,695;   -6,290; 4310,493; 0,22019
 522,93; 2714,877;   -5,190; 4479,855; 0,21719
 523,51; 2865,075;   -4,870; 4697,569; 0,21445
 524,09; 2991,065;   -5,560; 4862,445; 0,21072
 524,67; 3018,395;   -3,230; 4886,444; 0,20904
 525,26; 3125,460;   -5,050; 5038,081; 0,20709
 525,84; 3301,692;   -4,770; 5285,563; 0,20412
 526,42; 3481,010;   -3,330; 5532,902; 0,20109
 527,00; 3641,333;   -5,470; 5770,077; 0,19968
 527,58; 3770,772;   -4,130; 5955,848; 0,19834
 528,16; 4102,127;   -5,270; 6415,039; 0,19399
 528,75; 4424,070;   -5,360; 6848,228; 0,18957
 529,33; 4449,210;   -4,260; 6839,586; 0,18660
 529,91; 4454,790;   -5,820; 6811,817; 0,18424
 530,49; 4513,170;   -4,820; 6848,223; 0,18094
 531,07; 4549,657;   -4,750; 6863,703; 0,17843
 531,65; 4595,757;   -5,760; 6884,736; 0,17535
 532,23; 4587,357;   -4,530; 6826,018; 0,17246
 532,82; 4777,170;   -6,180; 7048,260; 0,16873
 533,40; 4826,942;   -4,170; 7063,360; 0,16522
 533,98; 4781,675;   -4,790; 6944,260; 0,16191
 534,56; 4725,377;   -5,680; 6814,785; 0,15886
 535,14; 4649,538;   -4,210; 6670,452; 0,15663
 535,72; 4474,663;   -5,190; 6410,764; 0,15600
 536,30; 4287,317;   -4,920; 6151,369; 0,15664
 536,88; 4316,290;   -4,170; 6155,186; 0,15401
 537,47; 4545,893;   -5,650; 6418,585; 0,14966
 538,05; 4702,640;   -4,550; 6605,759; 0,14746
 538,63; 4804,185;   -5,230; 6721,025; 0,14568
 539,21; 4872,175;   -5,650; 6786,479; 0,14378
 539,79; 4858,855;   -3,600; 6745,742; 0,14241
 540,37; 4994,590;   -5,610; 6898,581; 0,14013
 540,95; 5224,970;   -4,610; 7178,887; 0,13787
 541,53; 5285,210;   -4,440; 7228,253; 0,13587
 542,11; 5367,973;   -5,520; 7323,254; 0,13477
 542,69; 5430,710;   -4,460; 7394,117; 0,13394
 543,27; 5528,830;   -6,170; 7502,061; 0,13242
 543,85; 5675,845;   -5,200; 7650,437; 0,12955
 544,44; 5751,512;   -4,540; 7706,991; 0,12702
 545,02; 5733,547;   -5,210; 7665,808; 0,12604
 545,60; 5595,185;   -3,840; 7482,382; 0,12615
 546,18; 5697,465;   -5,680; 7604,014; 0,12525
 546,76; 5998,840;   -5,590; 7971,683; 0,12338
 547,34; 6478,145;   -3,860; 8554,871; 0,12070
 547,92; 6745,712;   -5,650; 8879,835; 0,11929
 548,50; 6594,762;   -4,250; 8690,641; 0,11979
 549,08; 6557,715;   -4,500; 8687,050; 0,12205
 549,66; 6807,478;   -4,990; 9021,604; 0,12222
 550,24; 7064,038;   -4,050; 9364,469; 0,12237
 550,82; 7285,465;   -5,680; 9625,422; 0,12088
 551,40; 7809,507;   -4,820;10298,904; 0,12010
 551,98; 8415,805;   -5,060;11020,842; 0,11706
 552,56; 8569,385;   -6,000;11197,671; 0,11611
 553,14; 8813,652;   -3,820;11480,781; 0,11477
 553,72; 9056,300;   -5,970;11754,813; 0,11320
 554,30; 9240,720;   -4,730;11980,700; 0,11273
 554,88; 9721,917;   -4,540;12548,268; 0,11079
 555,46;10132,652;   -6,300;13028,204; 0,10910
 556,04;10321,595;   -4,150;13253,867; 0,10856
 556,62;10362,755;   -5,460;13268,866; 0,10731
 557,20;10538,577;   -4,890;13475,948; 0,10673
 557,78;10688,657;   -4,180;13600,998; 0,10461
 558,36;10694,407;   -5,890;13603,802; 0,10445
 558,94;10806,402;   -3,830;13769,632; 0,10521
 559,52;11109,160;   -5,450;14104,440; 0,10363
 560,10;11469,718;   -5,650;14511,287; 0,10211
 560,68;11642,610;   -4,260;14730,109; 0,10212
 561,26;11692,470;   -5,140;14761,742; 0,10119
 561,84;11684,910;   -4,980;14756,670; 0,10132
 562,42;11847,558;   -5,060;14968,161; 0,10150
 563,00;12083,729;   -5,610;15285,754; 0,10204
 563,58;12357,510;   -3,950;15630,074; 0,10200
 564,15;12601,185;   -5,380;15936,721; 0,10195
 564,73;12838,987;   -4,500;16197,865; 0,10090
 565,31;13054,638;   -4,820;16419,855; 0,09957
 565,89;13355,348;   -5,520;16795,164; 0,09949
 566,47;13626,202;   -4,170;17089,439; 0,09833
 567,05;14118,665;   -5,440;17709,762; 0,09839
 567,63;14403,270;   -5,590;18075,350; 0,09859
 568,21;14946,162;   -3,600;18705,928; 0,09743
 568,79;15550,055;   -5,770;19369,254; 0,09535
 569,37;16384,037;   -4,630;20346,938; 0,09405
 569,95;16767,869;   -5,250;20754,416; 0,09261
 570,53;17176,838;   -5,700;21209,238; 0,09155
 571,10;17496,145;   -4,430;21593,779; 0,09137
 571,68;17689,395;   -5,500;21768,262; 0,09009
 572,26;17073,900;   -4,540;21051,453; 0,09093
 572,84;17798,342;   -4,750;21902,873; 0,09010
 573,42;18654,480;   -5,710;22901,822; 0,08906
 574,00;19318,975;   -4,300;23614,650; 0,08718
 574,58;19265,881;   -5,070;23563,039; 0,08742
 575,16;18676,033;   -4,870;22896,445; 0,08846
 575,73;18520,498;   -4,490;22737,027; 0,08906
 576,31;19631,158;   -5,320;24032,059; 0,08782
 576,89;20314,189;   -4,430;24842,340; 0,08738
 577,47;21746,855;   -4,970;26451,555; 0,08504
 578,05;21089,645;   -5,190;25671,629; 0,08537
 578,63;19764,615;   -4,490;24185,248; 0,08764
 579,21;19821,143;   -5,810;24291,572; 0,08830
 579,78;20390,393;   -4,590;24970,604; 0,08799
 580,36;20867,568;   -4,850;25586,652; 0,08852
 580,94;22686,488;   -5,720;27683,408; 0,08643
 581,52;23316,678;   -3,330;28335,918; 0,08466
 582,10;22163,811;   -5,710;27037,439; 0,08630
 582,67;20918,842;   -4,600;25695,531; 0,08930
 583,25;20448,752;   -5,160;25148,572; 0,08983
 583,83;20913,973;   -5,710;25693,820; 0,08937
 584,41;21794,605;   -4,110;26711,703; 0,08834
 584,99;22530,723;   -5,220;27624,320; 0,08850
 585,57;22188,223;   -4,740;27361,779; 0,09100
 586,14;21756,211;   -4,760;27007,686; 0,09389
 586,72;22256,277;   -5,350;27720,662; 0,09533
 587,30;22517,426;   -3,860;28086,492; 0,09596
 587,88;22381,646;   -5,240;27926,854; 0,09611
 588,45;22459,578;   -5,230;27993,469; 0,09564
 589,03;22473,859;   -4,020;28056,172; 0,09634
 589,61;22721,275;   -5,790;28464,064; 0,09784
 590,19;22845,436;   -4,490;28654,566; 0,09838
 590,77;22976,758;   -5,400;28787,723; 0,09790
 591,34;23313,721;   -5,310;29195,711; 0,09769
 591,92;23643,713;   -3,570;29524,449; 0,09645
 592,50;24224,717;   -5,430;30165,789; 0,09524
 593,08;24354,369;   -5,320;30336,215; 0,09537
 593,65;24264,232;   -4,920;30270,824; 0,09604
 594,23;24312,021;   -5,610;30392,027; 0,09692
 594,81;24583,193;   -3,840;30763,477; 0,09738
 595,39;24606,918;   -5,670;30914,625; 0,09909
 595,96;24690,131;   -4,920;31100,668; 0,10023
 596,54;24859,020;   -4,290;31317,381; 0,10029
 597,12;25056,855;   -5,440;31640,865; 0,10130
 597,69;25210,303;   -4,160;31819,477; 0,10110
 598,27;25438,740;   -4,900;32098,350; 0,10097
 598,85;25639,311;   -5,090;32431,717; 0,10205
 599,43;25607,863;   -4,010;32475,203; 0,10316
 600,00;25693,518;   -5,700;32590,869; 0,10325
 600,58;25794,063;   -3,600;32710,359; 0,10315
 601,16;25937,396;   -4,110;32750,094; 0,10127
 601,73;26002,807;   -5,430;32774,977; 0,10050
 602,31;26113,145;   -4,180;32969,320; 0,10124
 602,89;26203,992;   -5,240;33085,328; 0,10125
 603,46;26295,359;   -5,520;33212,656; 0,10141
 604,04;26397,000;   -4,570;33373,117; 0,10183
 604,62;26420,303;   -6,020;33425,164; 0,10212
 605,19;26597,008;   -4,220;33597,594; 0,10146
 605,77;26676,365;   -5,970;33690,164; 0,10136
 606,35;26489,145;   -5,230;33557,223; 0,10270
 606,92;26504,539;   -4,780;33688,828; 0,10415
 607,50;26480,188;   -5,310;33711,457; 0,10484
 608,08;26491,568;   -4,170;33823,559; 0,10610
 608,65;26630,625;   -4,290;34059,152; 0,10684
 609,23;26608,828;   -4,870;34096,738; 0,10767
 609,81;26722,006;   -4,350;34277,516; 0,10812
 610,38;26695,180;   -5,270;34270,254; 0,10847
 610,96;26624,955;   -4,410;34241,207; 0,10924
 611,54;26603,324;   -4,680;34253,977; 0,10976
 612,11;26645,168;   -5,600;34243,945; 0,10895
 612,69;26611,119;   -3,970;34239,531; 0,10945
 613,26;26580,502;   -5,510;34271,230; 0,11035
 613,84;26477,471;   -5,420;34234,785; 0,11157
 614,42;26471,490;   -4,040;34164,582; 0,11078
 614,99;26558,035;   -5,060;34244,121; 0,11037
 615,57;26504,957;   -4,580;34165,102; 0,11024
 616,14;26421,211;   -5,900;34162,027; 0,11157
 616,72;26428,539;   -5,020;34262,133; 0,11272
 617,30;26402,961;   -4,410;34265,004; 0,11318
 617,87;26350,994;   -5,240;34228,371; 0,11357
 618,45;26272,355;   -5,030;34129,207; 0,11361
 619,02;26153,652;   -4,560;34122,363; 0,11549
 619,60;26143,865;   -5,250;34228,230; 0,11699
 620,17;26107,715;   -3,960;34245,191; 0,11782
 620,75;25958,555;   -5,530;34067,793; 0,11804
 621,33;26069,752;   -4,820;34251,566; 0,11852
 621,90;26202,195;   -5,600;34415,785; 0,11840
 622,48;26247,953;   -5,440;34503,719; 0,11875
 623,05;26406,215;   -4,660;34667,895; 0,11820
 623,63;26492,457;   -5,260;34685,348; 0,11700
 624,20;26597,543;   -4,570;34714,172; 0,11565
 624,78;26641,824;   -4,500;34814,180; 0,11617
 625,35;26669,271;   -5,190;34927,504; 0,11714
 625,93;26630,227;   -4,440;34982,516; 0,11846
 626,50;26703,795;   -5,390;35163,625; 0,11950
 627,08;26817,240;   -5,620;35330,445; 0,11971
 627,66;26807,914;   -3,540;35293,672; 0,11942
 628,23;26919,400;   -5,520;35420,715; 0,11917
 628,81;27142,043;   -4,320;35717,777; 0,11923
 629,38;27224,393;   -4,340;35890,707; 0,12001
 629,96;27397,678;   -5,660;36184,645; 0,12079
 630,53;27634,020;   -4,570;36413,039; 0,11980
 631,11;27793,258;   -5,380;36601,977; 0,11954
 631,68;27942,365;   -4,790;36891,574; 0,12065
 632,26;27993,393;   -4,440;37102,113; 0,12233
 632,83;28089,922;   -5,040;37340,867; 0,12361
 633,40;28298,662;   -4,130;37714,328; 0,12472
 633,98;28511,547;   -5,060;38057,121; 0,12540
 634,55;28621,221;   -5,030;38264,590; 0,12609
 635,13;28805,484;   -4,340;38539,355; 0,12641
 635,70;28999,018;   -6,000;38740,613; 0,12576
 636,28;29080,047;   -4,280;38797,969; 0,12520
 636,85;29223,807;   -4,850;38958,516; 0,12485
 637,43;29411,623;   -5,440;39157,723; 0,12428
 638,00;29453,748;   -3,890;39289,820; 0,12513
 638,58;29578,230;   -5,060;39545,227; 0,12610
 639,15;29708,553;   -5,150;39781,203; 0,12678
 639,73;29758,162;   -5,160;39852,758; 0,12683
 640,30;29820,258;   -5,240;39923,715; 0,12670
 640,87;29964,334;   -4,030;40052,008; 0,12600
 641,45;29975,082;   -5,750;40011,887; 0,12541
 642,02;30011,369;   -4,560;40094,496; 0,12578
 642,60;30119,846;   -4,800;40156,809; 0,12489
 643,17;30140,193;   -5,460;40088,219; 0,12385
 643,74;30130,291;   -2,760;40008,016; 0,12313
 644,32;30289,289;   -5,330;40099,887; 0,12184
 644,89;30352,275;   -4,820;40122,898; 0,12118
 645,47;30326,094;   -4,950;40157,367; 0,12193
 646,04;30468,311;   -5,480;40317,977; 0,12163
 646,61;30542,918;   -4,730;40347,398; 0,12089
 647,19;30489,605;   -4,790;40292,129; 0,12105
 647,76;30547,883;   -6,130;40377,539; 0,12114
 648,34;30557,740;   -3,960;40300,387; 0,12017
 648,91;30563,916;   -5,250;40189,719; 0,11889
 649,48;30615,703;   -4,850;40268,848; 0,11901
 650,06;30723,721;   -4,620;40402,508; 0,11892
 650,63;30800,719;   -5,940;40449,539; 0,11833
 651,20;30974,807;   -4,230;40625,840; 0,11778
 651,78;31182,854;   -4,970;40947,270; 0,11829
 652,35;31362,240;   -5,200;41057,348; 0,11697
 652,92;31497,768;   -4,790;41189,488; 0,11649
 653,50;31693,615;   -5,670;41364,961; 0,11564
 654,07;31829,473;   -4,080;41439,941; 0,11458
 654,64;32336,090;   -6,000;42016,840; 0,11372
 655,22;36465,676;   -5,340;46878,570; 0,10908
 655,79;45450,176;   -3,730;57038,809; 0,09863
 656,36;37167,980;   -4,700;47342,629; 0,10507
 656,94;33676,258;   -4,060;43331,691; 0,10947
 657,51;33410,445;   -5,060;42995,609; 0,10953
 658,08;33525,402;   -5,180;43024,039; 0,10832
 658,66;33698,930;   -4,700;43261,180; 0,10847
 659,23;33950,859;   -5,170;43563,512; 0,10826
 659,80;34023,777;   -4,470;43717,789; 0,10886
 660,38;34141,613;   -4,640;43949,930; 0,10966
 660,95;34297,109;   -5,240;44210,973; 0,11026
 661,52;34367,207;   -3,730;44213,301; 0,10940
 662,09;34421,176;   -5,850;44180,371; 0,10839
 662,67;34686,531;   -4,880;44273,133; 0,10597
 663,24;34908,258;   -5,190;44339,313; 0,10385
 663,81;34971,637;   -5,080;44335,223; 0,10302
 664,39;35134,324;   -5,020;44542,082; 0,10303
 664,96;35364,281;   -5,150;44743,910; 0,10216
 665,53;35379,891;   -5,750;44699,582; 0,10153
 666,10;35423,875;   -4,360;44636,371; 0,10038
 666,68;35561,262;   -4,840;44677,383; 0,09910
 667,25;35582,281;   -4,510;44550,891; 0,09761
 667,82;35527,387;   -5,320;44451,461; 0,09731
 668,39;35665,324;   -5,180;44593,953; 0,09702
 668,96;35743,313;   -4,650;44639,973; 0,09652
 669,54;35731,449;   -6,040;44469,773; 0,09500
 670,11;35783,699;   -4,430;44416,352; 0,09385
 670,68;35861,727;   -4,780;44463,723; 0,09336
 671,25;35913,973;   -5,570;44478,652; 0,09288
 671,83;35956,238;   -3,800;44581,484; 0,09337
 672,40;36097,105;   -5,410;44792,574; 0,09372
 672,97;36167,453;   -4,900;44823,484; 0,09318
 673,54;36250,211;   -4,720;44787,914; 0,09184
 674,11;36474,367;   -5,000;44903,023; 0,09028
 674,69;36719,027;   -4,590;45010,703; 0,08841
 675,26;36813,395;   -4,860;45044,914; 0,08763
 675,83;36903,492;   -4,630;45071,855; 0,08683
 676,40;37097,359;   -4,380;45273,266; 0,08649
 676,97;37248,066;   -5,250;45295,863; 0,08494
 677,54;37366,094;   -4,660;45220,664; 0,08285
 678,12;37599,879;   -4,580;45363,023; 0,08151
 678,69;37774,996;   -5,110;45406,855; 0,07991
 679,26;37757,605;   -4,150;45236,465; 0,07848
 679,83;37859,094;   -5,410;45265,586; 0,07759
 680,40;38035,059;   -4,440;45381,484; 0,07669
 680,97;38065,625;   -4,450;45413,125; 0,07664
 681,55;38014,535;   -5,360;45313,996; 0,07627
 682,12;38141,172;   -3,620;45432,586; 0,07597
 682,69;38319,199;   -5,410;45474,098; 0,07434
 683,26;38373,996;   -5,240;45297,328; 0,07203
 683,83;38447,281;   -4,390;45303,715; 0,07126
 684,40;38736,059;   -5,330;45555,875; 0,07042
 684,97;38917,020;   -3,820;45581,008; 0,06864
 685,54;39016,707;   -4,130;45528,105; 0,06702
 686,12;39277,332;   -4,620;45733,676; 0,06609
 686,69;39720,871;   -3,800;46054,379; 0,06425
 687,26;40013,098;   -5,200;46197,316; 0,06241
 687,83;40192,246;   -4,940;46264,078; 0,06109
 688,40;40566,934;   -5,080;46591,297; 0,06013
 688,97;40785,961;   -5,420;46730,387; 0,05908
 689,54;40931,406;   -4,000;46749,816; 0,05772
 690,11;41161,664;   -5,330;46935,566; 0,05700
 690,68;41445,121;   -5,160;47240,617; 0,05684
 691,25;41503,770;   -4,440;47282,547; 0,05661
 691,82;41420,316;   -4,590;47168,328; 0,05643
 692,40;41593,441;   -3,890;47293,277; 0,05577
 692,97;41806,691;   -5,240;47300,609; 0,05361
 693,54;41747,809;   -4,820;47094,168; 0,05233
 694,11;41779,684;   -4,520;47010,117; 0,05122
 694,68;42023,551;   -6,080;47192,020; 0,05037
 695,25;42115,980;   -4,310;47223,039; 0,04970
 695,82;42045,648;   -5,080;47185,090; 0,05008
 696,39;42111,484;   -5,120;47345,508; 0,05087
 696,96;42331,410;   -4,200;47605,391; 0,05099
 697,53;42215,469;   -5,090;47324,398; 0,04961
 698,10;42139,078;   -4,730;47027,680; 0,04766
 698,67;42336,695;   -4,650;47049,699; 0,04584
 699,24;42507,891;   -4,280;47001,621; 0,04364
 699,81;42393,859;   -4,010;46769,609; 0,04266
 700,38;42390,984;   -4,910;46754,332; 0,04254
 700,95;42547,805;   -4,710;46908,402; 0,04237
 701,52;42695,109;   -4,250;46890,652; 0,04070
 702,09;42600,828;   -4,850;46664,652; 0,03957
 702,66;42576,664;   -4,340;46532,473; 0,03858
 703,23;42723,301;   -4,810;46549,199; 0,03724
 703,80;42776,059;   -4,930;46462,750; 0,03590
 704,37;42764,875;   -4,310;46295,453; 0,03445
 704,94;42891,684;   -4,470;46233,340; 0,03258
 705,51;43083,801;   -4,040;46296,672; 0,03123
 706,08;43048,840;   -4,910;46194,391; 0,03062
 706,65;42839,277;   -5,240;46109,563; 0,03195
 707,22;42834,145;   -4,260;46198,891; 0,03284
 707,79;42879,699;   -5,350;46172,941; 0,03213
 708,36;42679,809;   -4,180;45839,691; 0,03102
 708,93;42456,547;   -4,580;45558,953; 0,03063
 709,50;42544,641;   -4,850;45566,453; 0,02980
 710,06;42721,441;   -3,850;45614,742; 0,02846
 710,63;42716,777;   -4,630;45461,051; 0,02704
 711,20;42695,766;   -5,130;45408,242; 0,02675
 711,77;42926,203;   -4,530;45642,063; 0,02664
 712,34;43048,250;   -5,340;45635,813; 0,02535
 712,91;42949,078;   -3,400;45492,965; 0,02499
 713,48;43032,313;   -4,880;45518,953; 0,02439
 714,05;43200,691;   -5,230;45657,063; 0,02401
 714,62;43144,570;   -4,650;45445,512; 0,02256
 715,19;42941,605;   -5,380;45200,715; 0,02226
 715,76;42842,473;   -5,340;45160,285; 0,02288
 716,33;42880,379;   -4,710;45262,203; 0,02347
 716,89;42718,566;   -5,030;45051,805; 0,02309
 717,46;42464,184;   -4,050;44717,945; 0,02246
 718,03;42470,172;   -5,280;44700,336; 0,02222
 718,60;42546,629;   -4,630;44761,816; 0,02204
 719,17;42493,348;   -5,390;44622,633; 0,02123
 719,74;42280,875;   -4,940;44441,066; 0,02164
 720,31;42336,992;   -4,780;44641,434; 0,02302
 720,88;42584,027;   -4,990;44834,996; 0,02237
 721,44;42594,727;   -4,960;44691,637; 0,02087
 722,01;42541,055;   -4,340;44506,426; 0,01961
 722,58;42687,730;   -5,920;44642,336; 0,01944
 723,15;42997,188;   -4,140;44861,176; 0,01843
 723,72;43068,527;   -5,220;44829,938; 0,01741
 724,29;43061,191;   -4,510;44744,234; 0,01665
 724,85;43278,699;   -4,330;44943,355; 0,01639
 725,42;43652,848;   -5,400;45243,516; 0,01554
 725,99;43701,535;   -4,760;45269,438; 0,01531
 726,56;43726,070;   -4,870;45279,848; 0,01516
 727,13;43856,848;   -4,970;45481,457; 0,01580
 727,69;44150,195;   -3,980;45801,445; 0,01595
 728,26;44148,613;   -5,440;45735,508; 0,01533
 728,83;43921,680;   -5,080;45521,527; 0,01554
 729,40;43903,820;   -4,390;45501,168; 0,01552
 729,97;44071,707;   -5,460;45615,188; 0,01495
 730,53;43971,602;   -4,290;45363,277; 0,01353
 731,10;43707,449;   -4,890;45073,047; 0,01336
 731,67;43675,488;   -4,980;45081,887; 0,01376
 732,24;43817,996;   -4,210;45258,648; 0,01405
 732,81;43877,223;   -4,870;45334,648; 0,01419
 733,37;43769,488;   -4,520;45271,977; 0,01466
 733,94;44015,238;   -4,830;45401,688; 0,01347
 734,51;44244,145;   -4,750;45561,449; 0,01274
 735,08;44234,313;   -4,130;45466,047; 0,01193
 735,64;44082,578;   -5,570;45275,109; 0,01159
 736,21;44042,336;   -4,710;45235,418; 0,01161
 736,78;44209,785;   -4,950;45371,359; 0,01126
 737,35;44254,723;   -5,290;45378,898; 0,01089
 737,91;43997,277;   -3,900;45154,527; 0,01127
 738,48;43953,785;   -5,550;45107,230; 0,01125
 739,05;44286,852;   -4,560;45341,961; 0,01022
 739,61;44492,922;   -4,160;45417,699; 0,00893
 740,18;44348,430;   -5,430;45187,059; 0,00813
 740,75;44331,547;   -3,390;45132,398; 0,00777
 741,32;44529,703;   -4,840;45341,898; 0,00785
 741,88;44761,531;   -4,600;45529,352; 0,00739
 742,45;44754,605;   -4,570;45367,422; 0,00591
 743,02;44624,254;   -5,850;45191,512; 0,00549
 743,58;44821,043;   -4,680;45360,379; 0,00519
 744,15;45186,098;   -4,550;45625,910; 0,00421
 744,72;45161,297;   -5,770;45518,813; 0,00342
 745,28;44927,285;   -4,240;45288,949; 0,00348
 745,85;44860,199;   -5,490;45341,262; 0,00463
 746,42;45017,207;   -4,830;45547,441; 0,00508
 746,98;44891,137;   -4,910;45424,242; 0,00513
 747,55;44458,324;   -5,670;45051,871; 0,00576
 748,12;44177,480;   -4,840;44872,871; 0,00678
 748,68;44291,738;   -5,270;44944,203; 0,00635
 749,25;44454,184;   -4,670;44976,910; 0,00508
 749,82;44343,141;   -4,490;44625,941; 0,00276
 750,38;44235,531;   -5,110;44383,660; 0,00145
 750,95;44356,219;   -4,190;44396,613; 0,00040
 751,52;44426,875;   -4,330;44413,320;-0,00013
 752,08;44164,250;   -4,680;44151,262;-0,00013
 752,65;43842,039;   -4,410;43995,281; 0,00152
 753,21;43824,168;   -5,090;44068,992; 0,00242
 753,78;43998,215;   -4,110;44158,473; 0,00158
 754,35;43914,391;   -4,870;43897,793;-0,00016
 754,91;43738,078;   -5,530;43631,031;-0,00106
 755,48;43630,414;   -4,440;43607,383;-0,00023
 756,04;43718,582;   -4,440;43816,672; 0,00097
 756,61;43736,309;   -4,820;43948,234; 0,00210
 757,18;43516,148;   -4,480;43811,043; 0,00293
 757,74;43335,016;   -5,160;43723,965; 0,00388
 758,31;43265,703;   -3,880;43821,375; 0,00554
 758,87;43380,609;   -4,910;44011,555; 0,00627
 759,44;43312,598;   -4,620;43935,973; 0,00621
 760,00;43212,715;   -4,940;43827,336; 0,00613
 760,57;43309,852;   -4,660;43943,043; 0,00630
 761,14;43397,867;   -3,700;44048,195; 0,00646
 761,70;43398,926;   -5,100;43903,156; 0,00502
 762,27;43321,152;   -5,000;43671,926; 0,00350
 762,83;43424,809;   -3,740;43715,625; 0,00290
 763,40;43864,328;   -5,670;44093,086; 0,00226
 763,96;44213,074;   -4,290;44317,773; 0,00103
 764,53;44372,313;   -4,530;44327,676;-0,00044
 765,09;44203,668;   -4,720;44170,605;-0,00032
 765,66;44302,285;   -4,550;44292,895;-0,00009
 766,22;44586,793;   -5,090;44553,754;-0,00032
 766,79;44590,863;   -4,510;44424,496;-0,00162
 767,35;44475,199;   -4,150;44262,164;-0,00209
 767,92;44387,805;   -5,300;44281,918;-0,00104
 768,48;44504,793;   -3,780;44523,477; 0,00018
 769,05;44448,020;   -5,090;44412,047;-0,00035
 769,61;44139,469;   -4,310;44013,016;-0,00125
 770,18;43894,395;   -4,500;43785,316;-0,00108
 770,74;43893,484;   -5,580;43820,207;-0,00073
 771,31;44019,930;   -4,470;43960,328;-0,00059
 771,87;43865,836;   -5,100;43837,035;-0,00029
 772,44;43720,676;   -4,640;43709,977;-0,00011
 773,00;43767,523;   -4,690;43732,086;-0,00035
 773,57;44085,980;   -4,910;44037,219;-0,00048
 774,13;44326,926;   -4,300;44132,809;-0,00191
 774,70;44435,215;   -4,250;44073,137;-0,00355
 775,26;44366,551;   -5,220;43972,996;-0,00387
 775,82;44542,418;   -3,830;44125,020;-0,00409
 776,39;44829,516;   -4,760;44465,590;-0,00354
 776,95;44926,223;   -4,940;44485,438;-0,00428
 777,52;44807,980;   -4,500;44251,598;-0,00543
 778,08;44672,387;   -5,100;44008,227;-0,00650
 778,65;44741,586;   -4,320;44061,297;-0,00665
 779,21;44859,293;   -5,210;44227,598;-0,00616
 779,77;44739,391;   -4,760;44118,109;-0,00607
 780,34;44455,418;   -3,740;43853,449;-0,00592
 780,90;44444,266;   -5,100;43935,301;-0,00500
 781,47;44573,172;   -4,140;44093,020;-0,00470
 782,03;44633,660;   -4,900;44144,898;-0,00478
 782,59;44453,996;   -5,010;43958,449;-0,00487
 783,16;44285,234;   -3,990;43855,578;-0,00423
 783,72;44356,152;   -5,250;43965,328;-0,00384
 784,29;44546,289;   -5,160;44116,891;-0,00421
 784,85;44701,805;   -4,310;44150,520;-0,00539
 785,41;44551,652;   -5,320;43955,801;-0,00585
 785,98;44374,422;   -4,140;43788,039;-0,00578
 786,54;44370,828;   -4,970;43853,652;-0,00509
 787,10;44466,816;   -4,080;43992,801;-0,00465
 787,67;44410,324;   -3,890;43984,859;-0,00418
 788,23;44108,730;   -4,960;43796,352;-0,00309
 788,79;43948,969;   -4,280;43755,332;-0,00192
 789,36;43899,754;   -5,070;43770,563;-0,00128
 789,92;43999,582;   -4,730;43826,422;-0,00171
 790,48;43828,320;   -4,480;43590,531;-0,00236
 791,05;43578,035;   -5,270;43317,391;-0,00261
 791,61;43422,516;   -4,190;43303,363;-0,00119
 792,17;43580,410;   -4,950;43526,652;-0,00054
 792,74;43647,168;   -4,720;43612,320;-0,00035
 793,30;43528,535;   -4,240;43416,203;-0,00112
 793,86;43366,914;   -4,790;43128,422;-0,00239
 794,43;43216,762;   -4,580;42936,352;-0,00283
 794,99;43293,758;   -4,570;42906,781;-0,00390
 795,55;43264,523;   -4,500;42758,512;-0,00511
 796,11;43099,313;   -4,300;42390,145;-0,00720
 796,68;42980,980;   -4,700;42131,152;-0,00867
 797,24;43043,176;   -5,260;42129,332;-0,00932
 797,80;43215,516;   -3,900;42221,762;-0,01010
 798,36;43115,652;   -4,930;42097,352;-0,01038
 798,93;42746,969;   -3,670;41820,992;-0,00951
 799,49;42259,895;   -5,880;41567,383;-0,00717
 800,05;42020,734;   -4,920;41466,355;-0,00577
 800,61;41994,902;   -4,410;41498,113;-0,00517
 801,18;41919,906;   -4,290;41372,324;-0,00571
 801,74;41601,855;   -3,610;41042,703;-0,00588
 802,30;41409,102;   -4,560;40871,414;-0,00568
 802,86;41410,762;   -4,900;40957,203;-0,00478
 803,43;41568,867;   -4,360;41145,043;-0,00445
 803,99;41530,074;   -5,310;41015,273;-0,00542
 804,55;41391,461;   -4,370;40713,953;-0,00717
 805,11;41213,449;   -4,390;40473,996;-0,00786
 805,68;41370,887;   -4,490;40579,887;-0,00838
 806,24;41467,016;   -4,470;40646,766;-0,00868
 806,80;41253,641;   -4,750;40330,746;-0,00982
 807,36;40898,410;   -3,860;39958,715;-0,01009
 807,92;40689,258;   -4,020;39815,426;-0,00943
 808,48;40634,375;   -5,780;39892,594;-0,00800
 809,05;40596,160;   -4,590;40010,098;-0,00631
 809,61;40508,688;   -5,120;39951,457;-0,00601
 810,17;40213,246;   -4,880;39706,406;-0,00551
 810,73;39963,664;   -4,520;39512,086;-0,00493
 811,29;39960,461;   -5,680;39438,875;-0,00571
 811,85;40057,637;   -4,880;39408,188;-0,00710
 812,42;40044,793;   -4,170;39310,637;-0,00804
 812,98;39817,461;   -5,360;39064,105;-0,00829
 813,54;39611,418;   -3,660;38981,586;-0,00696
 814,10;39443,848;   -5,530;38966,508;-0,00529
 814,66;39528,273;   -4,750;39125,918;-0,00444
 815,22;39586,930;   -4,650;39069,176;-0,00572
 815,78;39560,430;   -4,910;38863,539;-0,00772
 816,35;39601,465;   -3,340;38825,988;-0,00859
 816,91;39704,754;   -5,620;38974,770;-0,00806
 817,47;39786,402;   -4,510;39097,059;-0,00759
 818,03;39810,020;   -4,800;39148,246;-0,00728
 818,59;39617,914;   -5,350;38937,488;-0,00752
 819,15;39547,844;   -4,450;38758,199;-0,00876
 819,71;39418,320;   -4,460;38674,297;-0,00827
 820,27;39556,766;   -5,000;38903,500;-0,00723
 820,83;39778,516;   -4,280;39150,098;-0,00691
 821,39;39668,941;   -4,800;39105,078;-0,00622
 821,96;39517,758;   -4,430;38979,898;-0,00595
 822,52;39531,367;   -4,570;38994,570;-0,00594
 823,08;39651,035;   -5,190;39103,969;-0,00603
 823,64;39897,859;   -3,870;39252,871;-0,00708
 824,20;39963,539;   -5,220;39152,188;-0,00891
 824,76;39980,477;   -4,260;39005,199;-0,01072
 825,32;40094,055;   -4,090;39127,320;-0,01060
 825,88;40288,738;   -4,560;39411,840;-0,00956
 826,44;40451,027;   -3,960;39730,328;-0,00781
 827,00;40560,926;   -4,810;39939,801;-0,00670
 827,56;40513,293;   -4,690;39915,949;-0,00645
 828,12;40542,898;   -4,330;39968,129;-0,00620
 828,68;40743,809;   -4,950;40175,332;-0,00610
 829,24;40976,285;   -4,740;40359,270;-0,00659
 829,80;41074,133;   -4,980;40395,391;-0,00724
 830,36;40982,391;   -4,640;40181,391;-0,00857
 830,92;40862,367;   -3,850;39994,820;-0,00932
 831,48;40930,152;   -5,280;40056,352;-0,00937
 832,04;41056,859;   -4,470;40149,242;-0,00971
 832,60;41090,418;   -5,310;40157,109;-0,00998
 833,16;40951,465;   -5,060;39954,160;-0,01071
 833,72;40677,414;   -3,660;39717,590;-0,01037
 834,28;40500,520;   -4,770;39643,391;-0,00929
 834,84;40450,246;   -4,820;39687,934;-0,00826
 835,40;40476,465;   -4,350;39684,320;-0,00858
 835,96;40438,594;   -4,910;39612,492;-0,00896
 836,52;40188,488;   -4,000;39311,863;-0,00958
 837,08;39951,785;   -4,970;39091,824;-0,00945
 837,64;39933,414;   -4,610;39043,941;-0,00978
 838,20;40000,691;   -3,650;39143,484;-0,00941
 838,76;40107,410;   -4,990;39199,363;-0,00994
 839,32;40045,305;   -4,610;39081,012;-0,01058
 839,88;39831,262;   -4,430;38925,523;-0,00999
 840,43;39705,660;   -4,730;38906,332;-0,00883
 840,99;39779,828;   -2,400;39099,922;-0,00749
 841,55;39918,227;   -4,610;39246,422;-0,00737
 842,11;39983,082;   -3,990;39315,734;-0,00731
 842,67;39945,090;   -4,500;39189,953;-0,00829
 843,23;39803,836;   -5,090;39081,254;-0,00796
 843,79;39889,395;   -4,170;39226,004;-0,00728
 844,35;40104,992;   -4,850;39549,715;-0,00605
 844,91;40100,500;   -4,500;39655,695;-0,00484
 845,47;39989,547;   -4,250;39610,195;-0,00414
 846,03;39754,953;   -4,860;39431,414;-0,00355
 846,58;39642,531;   -4,660;39294,465;-0,00383
 847,14;39716,090;   -4,930;39371,125;-0,00379
 847,70;39814,984;   -4,830;39477,453;-0,00370
 848,26;39641,742;   -3,630;39270,996;-0,00408
 848,82;39487,160;   -4,830;39021,227;-0,00515
 849,38;39276,996;   -4,990;38809,547;-0,00520
 849,94;39216,156;   -4,380;38719,934;-0,00553
 850,49;39300,973;   -5,320;38824,457;-0,00530
 851,05;39394,031;   -4,440;38821,246;-0,00636
 851,61;39281,309;   -4,610;38603,824;-0,00755
 852,17;39021,684;   -4,110;38331,895;-0,00774
 852,73;38863,211;   -4,440;38212,508;-0,00733
 853,29;38754,340;   -4,420;38212,527;-0,00611
 853,84;38643,465;   -4,200;38221,516;-0,00477
 854,40;38635,285;   -5,080;38263,918;-0,00419
 854,96;38432,391;   -5,090;38056,777;-0,00426
 855,52;38301,250;   -4,570;37875,656;-0,00485
 856,08;38230,504;   -5,070;37850,285;-0,00434
 856,63;38206,441;   -4,270;37919,168;-0,00328
 857,19;38143,730;   -5,160;37960,629;-0,00209
 857,75;38005,906;   -5,010;37883,336;-0,00140
 858,31;37713,914;   -4,640;37587,566;-0,00146
 858,86;37532,801;   -4,940;37415,016;-0,00136
 859,42;37535,211;   -4,670;37322,777;-0,00246
 859,98;37655,098;   -5,430;37360,828;-0,00341
 860,54;37692,902;   -5,000;37260,188;-0,00501
 861,10;37595,461;   -4,180;37110,629;-0,00564
 861,65;37476,039;   -5,130;36953,477;-0,00610
 862,21;37416,875;   -4,670;36820,777;-0,00697
 862,77;37496,402;   -4,100;36845,887;-0,00760
 863,32;37790,930;   -4,740;37102,738;-0,00798
 863,88;37908,430;   -4,260;37106,898;-0,00928
 864,44;37812,645;   -4,730;36914,570;-0,01044
 865,00;37625,902;   -4,860;36799,109;-0,00965
 865,55;37516,102;   -4,290;36795,418;-0,00842
 866,11;37540,027;   -4,290;36979,469;-0,00653
 866,67;37611,594;   -4,510;37180,840;-0,00500
 867,23;37633,441;   -5,190;37323,730;-0,00359
 867,78;37642,859;   -4,210;37376,738;-0,00308
 868,34;37459,055;   -3,960;37302,148;-0,00182
 868,90;37496,234;   -4,610;37316,031;-0,00209
 869,45;37673,723;   -4,640;37453,809;-0,00254
 870,01;37867,418;   -4,310;37489,371;-0,00436
 870,57;38054,824;   -4,940;37552,629;-0,00577
 871,12;38030,664;   -3,750;37434,219;-0,00686
 871,68;37826,770;   -5,520;37199,102;-0,00727
 872,24;37773,668;   -5,010;37116,941;-0,00762
 872,79;37886,336;   -4,530;37245,590;-0,00741
 873,35;37886,230;   -5,120;37269,383;-0,00713
 873,91;37750,898;   -3,860;37098,762;-0,00757
 874,46;37538,418;   -5,190;36836,543;-0,00820
 875,02;37292,785;   -4,990;36586,680;-0,00830
 875,57;37232,902;   -4,950;36576,000;-0,00773
 876,13;37274,160;   -5,190;36698,223;-0,00676
 876,69;37396,234;   -4,580;36875,363;-0,00609
 877,24;37205,434;   -4,190;36695,191;-0,00600
 877,80;37031,570;   -4,900;36493,492;-0,00636
 878,36;36857,180;   -4,340;36309,523;-0,00650
 878,91;36728,746;   -4,750;36246,164;-0,00574
 879,47;36741,594;   -4,080;36310,641;-0,00512
 880,02;36840,980;   -4,570;36400,063;-0,00523
 880,58;36760,379;   -5,350;36223,031;-0,00639
 881,14;36553,184;   -4,480;35978,895;-0,00688
 881,69;36289,023;   -4,160;35647,352;-0,00775
 882,25;36022,008;   -4,290;35460,453;-0,00682
 882,80;35840,625;   -4,310;35397,234;-0,00541
 883,36;35745,402;   -4,870;35356,574;-0,00475
 883,91;35578,453;   -4,660;35199,953;-0,00464
 884,47;35296,160;   -3,880;34918,445;-0,00467
 885,03;34971,895;   -4,140;34625,535;-0,00432
 885,58;34797,984;   -3,990;34537,844;-0,00326
 886,14;34701,980;   -5,310;34454,355;-0,00311
 886,69;34746,438;   -3,680;34526,453;-0,00276
 887,25;34658,875;   -4,370;34405,965;-0,00318
 887,80;34470,102;   -5,070;34153,164;-0,00401
 888,36;34377,262;   -4,310;34007,426;-0,00470
 888,91;34207,996;   -4,640;33732,414;-0,00608
 889,47;34223,023;   -4,070;33728,824;-0,00632
 890,02;34375,391;   -4,590;33819,535;-0,00708
 890,58;34456,039;   -5,330;33792,727;-0,00844
 891,13;34292,195;   -3,970;33558,695;-0,00939
 891,69;34129,594;   -4,510;33399,605;-0,00939
 892,24;33907,813;   -4,690;33176,117;-0,00947
 892,80;33870,379;   -4,450;33184,707;-0,00888
 893,35;33865,797;   -4,390;33180,527;-0,00888
 893,91;33772,504;   -3,800;33179,734;-0,00769
 894,46;33532,492;   -4,560;32995,938;-0,00700
 895,02;33261,520;   -4,780;32760,246;-0,00659
 895,57;33002,664;   -4,850;32567,287;-0,00577
 896,13;32931,293;   -4,630;32540,166;-0,00519
 896,68;32889,559;   -4,210;32488,217;-0,00533
 897,23;32802,035;   -4,700;32410,326;-0,00522
 897,79;32657,455;   -4,920;32228,707;-0,00574
 898,34;32338,191;   -4,810;31909,666;-0,00579
 898,90;32155,959;   -5,320;31757,758;-0,00541
 899,45;32047,646;   -4,360;31695,348;-0,00480
 900,01;31995,963;   -3,770;31632,428;-0,00496
 900,56;32015,301;   -4,700;31618,568;-0,00541
 901,11;31900,348;   -4,370;31434,207;-0,00639
 901,67;31748,725;   -4,110;31252,547;-0,00684
 902,22;31653,094;   -4,910;31134,918;-0,00717
 902,78;31535,090;   -4,060;31051,299;-0,00671
 903,33;31476,748;   -4,710;31034,447;-0,00614
 903,89;31505,385;   -4,310;31073,219;-0,00600
 904,44;31514,361;   -4,610;31060,219;-0,00630
 904,99;31429,539;   -4,410;30933,078;-0,00691
 905,55;31303,137;   -4,310;30722,428;-0,00813
 906,10;31179,844;   -4,800;30588,338;-0,00832
 906,65;31162,191;   -4,770;30542,148;-0,00873
 907,21;31121,748;   -4,730;30531,250;-0,00832
 907,76;31015,096;   -4,920;30501,340;-0,00725
 908,31;30901,734;   -4,120;30412,029;-0,00694
 908,87;30640,211;   -4,890;30241,189;-0,00569
 909,42;30439,908;   -3,830;30060,100;-0,00545
 909,97;30277,596;   -4,090;29868,629;-0,00591
 910,53;30238,143;   -5,190;29793,539;-0,00643
 911,08;30134,150;   -3,960;29690,551;-0,00644
 911,63;30052,311;   -4,680;29533,680;-0,00756
 912,19;29833,270;   -5,110;29286,900;-0,00803
 912,74;29665,760;   -4,560;29111,539;-0,00819
 913,29;29516,730;   -5,500;28993,609;-0,00776
 913,85;29381,090;   -3,850;28901,369;-0,00715
 914,40;29363,520;   -4,500;28902,439;-0,00687
 914,95;29213,789;   -5,470;28734,910;-0,00718
 915,51;29102,551;   -4,640;28612,240;-0,00738
 916,06;28850,670;   -5,160;28384,869;-0,00707
 916,61;28714,961;   -3,950;28176,480;-0,00822
 917,16;28553,939;   -4,220;28031,221;-0,00802
 917,72;28487,580;   -4,720;28015,891;-0,00725
 918,27;28444,230;   -3,910;28025,990;-0,00643
 918,82;28274,660;   -4,420;27914,930;-0,00556
 919,37;28098,400;   -4,300;27807,381;-0,00452
 919,93;27959,020;   -3,970;27681,260;-0,00434
 920,48;27675,420;   -4,440;27485,289;-0,00299
 921,03;27591,010;   -4,460;27426,539;-0,00260
 921,58;27518,471;   -4,300;27350,740;-0,00265
 922,14;27437,570;   -4,200;27274,551;-0,00259
 922,69;27278,279;   -4,730;27158,070;-0,00192
 923,24;27070,199;   -5,250;26962,850;-0,00173
 923,79;26872,939;   -4,830;26741,020;-0,00214
 924,35;26666,211;   -4,120;26563,211;-0,00168
 924,90;26633,320;   -5,740;26544,119;-0,00146
 925,45;26509,891;   -4,640;26439,910;-0,00115
 926,00;26497,221;   -4,980;26389,830;-0,00176
 926,55;26419,670;   -3,500;26298,760;-0,00199
 927,11;26307,930;   -4,580;26152,730;-0,00257
 927,66;26153,820;   -4,700;25921,330;-0,00388
 928,21;25909,410;   -3,900;25694,420;-0,00362
 928,76;25807,520;   -4,960;25601,449;-0,00348
 929,31;25650,850;   -4,910;25444,760;-0,00350
 929,86;25439,180;   -4,180;25277,270;-0,00277
 930,42;25229,820;   -4,970;25113,920;-0,00200
 930,97;24937,539;   -4,340;24868,381;-0,00121
 931,52;24643,850;   -4,360;24612,051;-0,00056
 932,07;24413,990;   -4,860;24425,311; 0,00020
 932,62;24254,051;   -4,490;24308,270; 0,00097
 933,17;24051,939;   -4,920;24117,480; 0,00118
 933,72;23852,869;   -4,360;23951,730; 0,00180
 934,28;23601,680;   -4,720;23677,189; 0,00139
 934,83;23420,711;   -5,190;23454,779; 0,00063
 935,38;23218,260;   -4,480;23256,820; 0,00072
 935,93;23058,980;   -4,630;23148,150; 0,00168
 936,48;22965,381;   -4,230;23054,400; 0,00168
 937,03;22846,680;   -4,540;22934,850; 0,00167
 937,58;22730,211;   -4,570;22812,199; 0,00156
 938,13;22650,760;   -4,070;22671,199; 0,00039
 938,68;22496,801;   -4,750;22492,369;-0,00009
 939,23;22370,250;   -4,310;22345,631;-0,00048
 939,79;22229,090;   -4,320;22146,680;-0,00161
 940,34;22189,881;   -5,430;22045,430;-0,00284
 940,89;22051,420;   -4,260;21928,240;-0,00243
 941,44;21912,260;   -4,410;21783,279;-0,00256
 941,99;21634,359;   -4,930;21561,561;-0,00146
 942,54;21348,510;   -4,360;21290,160;-0,00119
 943,09;21213,920;   -4,660;21131,471;-0,00169
 943,64;21044,939;   -4,910;20950,119;-0,00196
 944,19;20872,580;   -4,060;20752,760;-0,00250
 944,74;20714,240;   -5,100;20561,250;-0,00322
 945,29;20463,619;   -3,800;20290,320;-0,00369
 945,84;20245,170;   -5,180;20059,320;-0,00400
 946,39;19972,461;   -4,440;19882,869;-0,00195
 946,94;19625,561;   -4,220;19670,850; 0,00100
 947,49;19397,711;   -4,760;19503,750; 0,00237
 948,04;19215,109;   -3,680;19361,811; 0,00330
 948,59;19049,730;   -4,570;19167,250; 0,00267
 949,14;18839,320;   -4,630;18933,641; 0,00217
 949,69;18539,449;   -4,250;18633,590; 0,00220
 950,24;18260,830;   -4,900;18357,859; 0,00230
 950,79;18004,600;   -3,910;18130,680; 0,00303
 951,34;17802,961;   -4,150;17944,619; 0,00344
 951,89;17574,070;   -4,920;17713,949; 0,00344
 952,44;17376,779;   -4,230;17548,520; 0,00427
 952,99;17160,109;   -3,780;17346,539; 0,00469
 953,54;16900,830;   -4,270;17077,420; 0,00451
 954,09;16695,850;   -4,730;16885,230; 0,00490
 954,64;16473,520;   -5,190;16639,080; 0,00434
 955,19;16246,250;   -3,910;16427,561; 0,00482
 955,74;16079,400;   -4,810;16247,050; 0,00450
 956,28;15920,710;   -4,020;16070,740; 0,00407
 956,83;15778,100;   -4,410;15937,240; 0,00436
 957,38;15580,670;   -3,550;15737,380; 0,00435
 957,93;15423,920;   -3,990;15571,300; 0,00413
 958,48;15265,110;   -4,650;15409,890; 0,00410
 959,03;15105,360;   -4,930;15301,920; 0,00561
 959,58;14947,150;   -3,820;15166,340; 0,00632
 960,13;14801,590;   -5,060;15041,950; 0,00699
 960,68;14703,800;   -4,900;14957,980; 0,00744
 961,23;14567,270;   -4,630;14846,260; 0,00824
 961,77;14409,610;   -4,830;14687,220; 0,00828
 962,32;14242,540;   -4,650;14521,860; 0,00843
 962,87;14121,940;   -5,250;14398,310; 0,00841
 963,42;13981,960;   -3,850;14246,010; 0,00812
 963,97;13856,620;   -4,630;14135,620; 0,00865
 964,52;13720,220;   -4,560;14002,170; 0,00883
 965,07;13568,750;   -3,860;13845,810; 0,00878
 965,61;13416,650;   -4,830;13706,870; 0,00929
 966,16;13262,990;   -4,330;13548,370; 0,00924
 966,71;13120,690;   -4,460;13410,100; 0,00947
 967,26;13010,820;   -4,880;13301,880; 0,00960
 967,81;12888,430;   -4,550;13204,260; 0,01051
 968,36;12819,350;   -4,810;13126,930; 0,01029
 968,90;12731,250;   -4,510;13047,110; 0,01064
 969,45;12651,460;   -4,040;12970,060; 0,01080
 970,00;12575,780;   -4,570;12890,410; 0,01073
 970,55;12498,620;   -3,790;12828,050; 0,01130
 971,10;12450,680;   -4,250;12755,890; 0,01051
 971,64;12414,610;   -4,660;12712,040; 0,01028
 972,19;12369,060;   -4,210;12687,610; 0,01104
 972,74;12312,470;   -4,110;12678,870; 0,01273
 973,29;12221,510;   -4,240;12592,430; 0,01298
 973,84;12150,440;   -4,190;12523,300; 0,01312
 974,38;12077,190;   -4,350;12450,940; 0,01323
 974,93;12016,790;   -3,890;12384,120; 0,01307
 975,48;11958,000;   -4,220;12307,820; 0,01252
 976,03;11891,590;   -4,300;12244,730; 0,01270
 976,57;11812,470;   -4,700;12135,550; 0,01171
 977,12;11714,550;   -4,400;12037,190; 0,01180
 977,67;11611,830;   -4,610;11915,300; 0,01120
 978,21;11485,730;   -4,500;11801,660; 0,01178
 978,76;11387,430;   -4,840;11691,970; 0,01146
 979,31;11308,380;   -4,120;11618,750; 0,01175
 979,86;11223,230;   -4,890;11522,130; 0,01141
 980,40;11177,250;   -3,890;11466,060; 0,01108
 980,95;11072,300;   -4,180;11353,560; 0,01089
 981,50;10984,160;   -4,420;11276,210; 0,01139
 982,04;10906,240;   -4,240;11159,700; 0,00997
 982,59;10847,500;   -4,610;11085,870; 0,00944
 983,14;10797,190;   -4,370;10990,190; 0,00769
 983,68;10747,490;   -5,100;10922,850; 0,00703
 984,23;10712,460;   -4,270;10855,690; 0,00577
 984,78;10668,000;   -3,690;10808,370; 0,00568
 985,32;10564,180;   -4,770;10717,740; 0,00626
 985,87;10486,680;   -4,940;10647,060; 0,00659
 986,42;10403,300;   -3,900;10561,550; 0,00655
 986,96;10325,850;   -4,780;10498,500; 0,00720
 987,51;10280,140;   -4,250;10422,350; 0,00596
 988,06;10229,610;   -4,330;10361,530; 0,00556
 988,60;10168,920;   -5,150;10262,480; 0,00398
 989,15;10149,130;   -4,010;10213,350; 0,00274
 989,70;10136,640;   -4,960;10166,080; 0,00126
 990,24;10070,650;   -3,940;10076,810; 0,00027
 990,79; 9970,390;   -4,060; 9949,990;-0,00089
 991,33; 9875,220;   -5,450; 9844,620;-0,00135
 991,88; 9822,680;   -4,420; 9778,350;-0,00196
 992,43; 9762,120;   -4,540; 9728,310;-0,00151
 992,97; 9697,280;   -4,310; 9687,260;-0,00045
 993,52; 9594,260;   -3,940; 9609,520; 0,00069
 994,06; 9494,140;   -5,080; 9540,130; 0,00210
 994,61; 9397,650;   -4,400; 9475,860; 0,00360
 995,16; 9296,820;   -4,720; 9392,180; 0,00443
 995,70; 9189,870;   -4,770; 9315,440; 0,00589
 996,25; 9116,440;   -4,650; 9238,880; 0,00579
 996,79; 9047,880;   -4,720; 9173,310; 0,00598
 997,34; 8982,000;   -4,320; 9107,790; 0,00604
 997,88; 8952,820;   -4,650; 9060,840; 0,00521
 998,43; 8889,390;   -4,700; 8994,340; 0,00509
 998,97; 8823,660;   -4,080; 8915,670; 0,00450
 999,52; 8739,550;   -4,520; 8847,540; 0,00533
1000,06; 8652,010;   -4,050; 8774,280; 0,00609
1000,61; 8598,250;   -4,160; 8728,150; 0,00651
1001,15; 8568,260;   -4,130; 8672,090; 0,00523
1001,70; 8519,100;   -4,280; 8622,270; 0,00523
1002,24; 8485,870;   -4,500; 8561,570; 0,00386
1002,79; 8436,450;   -4,660; 8487,130; 0,00260
1003,33; 8374,810;   -4,040; 8402,780; 0,00145
1003,88; 8341,880;   -4,350; 8342,400; 0,00003
1004,42; 8294,950;   -3,880; 8289,650;-0,00028
1004,97; 8237,790;   -4,970; 8230,250;-0,00040
1005,51; 8200,530;   -4,030; 8175,060;-0,00135
1006,06; 8153,220;   -4,510; 8121,840;-0,00167
1006,60; 8097,380;   -4,190; 8077,710;-0,00106
1007,15; 8055,260;   -3,750; 8047,010;-0,00044
1007,69; 8009,370;   -4,490; 7996,290;-0,00071
1008,24; 7932,960;   -4,420; 7956,180; 0,00127
1008,78; 7874,380;   -3,620; 7910,450; 0,00198
1009,33; 7800,470;   -4,890; 7869,060; 0,00380
1009,87; 7746,190;   -4,100; 7838,230; 0,00513
1010,41; 7689,070;   -4,590; 7788,290; 0,00557
1010,96; 7654,810;   -3,460; 7745,480; 0,00511
1011,50; 7592,140;   -4,300; 7695,330; 0,00586
1012,05; 7551,680;   -4,090; 7645,660; 0,00537
1012,59; 7487,630;   -4,640; 7593,520; 0,00610
1013,13; 7429,780;   -4,200; 7519,840; 0,00523
1013,68; 7380,540;   -4,920; 7466,020; 0,00500
1014,22; 7322,250;   -4,820; 7406,390; 0,00496
1014,77; 7253,730;   -4,460; 7342,660; 0,00529
1015,31; 7193,860;   -4,330; 7281,480; 0,00525
1015,85; 7142,580;   -4,440; 7215,310; 0,00440
1016,40; 7059,830;   -4,710; 7130,170; 0,00430
1016,94; 6998,160;   -4,170; 7057,450; 0,00366
1017,48; 6920,910;   -4,290; 6985,950; 0,00406
1018,03; 6881,960;   -4,810; 6939,550; 0,00362
1018,57; 6831,570;   -3,810; 6881,320; 0,00315
1019,11; 6767,170;   -3,900; 6838,640; 0,00456
1019,66; 6706,310;   -4,200; 6788,860; 0,00531
1020,20; 6634,160;   -4,190; 6738,120; 0,00675
1020,74; 6568,030;   -4,880; 6659,200; 0,00598
1021,29; 6526,640;   -3,910; 6613,170; 0,00572
1021,83; 6471,730;   -4,530; 6538,330; 0,00444
1022,37; 6437,930;   -4,690; 6480,950; 0,00289
1022,92; 6393,410;   -4,290; 6423,940; 0,00207
1023,46; 6351,120;   -5,100; 6355,990; 0,00033
1024,00; 6303,310;   -4,440; 6304,040; 0,00005
1024,55; 6248,330;   -3,850; 6239,780;-0,00059
1025,09; 6217,780;   -4,830; 6188,570;-0,00204
1025,63; 6172,730;   -3,910; 6138,970;-0,00238
1026,17; 6122,630;   -4,440; 6072,770;-0,00355
1026,72; 6084,510;   -4,480; 6023,270;-0,00439
1027,26; 6046,020;   -3,970; 5991,970;-0,00390
1027,80; 6006,580;   -4,430; 5950,650;-0,00406
1028,35; 5967,850;   -4,470; 5909,630;-0,00425
1028,89; 5929,120;   -4,540; 5882,330;-0,00344
1029,43; 5883,970;   -4,860; 5844,800;-0,00290
1029,97; 5842,930;   -4,260; 5818,040;-0,00185
1030,52; 5794,730;   -4,500; 5783,920;-0,00081
1031,06; 5751,650;   -4,110; 5737,580;-0,00106
1031,60; 5680,070;   -4,420; 5693,680; 0,00104
1032,14; 5630,160;   -3,860; 5618,460;-0,00090
1032,68; 5568,200;   -4,680; 5553,920;-0,00111
1033,23; 5504,020;   -4,800; 5500,370;-0,00029
1033,77; 5431,440;   -4,410; 5417,490;-0,00112
1034,31; 5351,630;   -4,330; 5339,480;-0,00099
1034,85; 5264,490;   -4,480; 5241,450;-0,00190
1035,39; 5183,820;   -4,140; 5163,240;-0,00173
1035,94; 5129,860;   -4,340; 5101,460;-0,00241
1036,48; 5069,810;   -4,910; 5043,450;-0,00226
1037,02; 5006,650;   -4,530; 4974,630;-0,00278
1037,56; 4952,730;   -4,440; 4920,130;-0,00287
1038,10; 4877,270;   -4,280; 4837,520;-0,00355
1038,64; 4817,340;   -4,330; 4773,870;-0,00393
1039,19; 4747,970;   -4,380; 4705,710;-0,00388
1039,73; 4699,170;   -3,970; 4652,480;-0,00433
1040,27; 4637,220;   -4,130; 4591,750;-0,00428
1040,81; 4560,380;   -4,120; 4519,110;-0,00394
1041,35; 4509,810;   -5,610; 4470,110;-0,00384
1041,89; 4443,770;   -4,560; 4408,390;-0,00347
1042,43; 4380,230;   -4,220; 4349,450;-0,00306
1042,97; 4322,380;   -4,260; 4292,410;-0,00302
1043,52; 4255,580;   -4,640; 4233,740;-0,00223
1044,06; 4197,490;   -4,570; 4173,140;-0,00252
1044,60; 4137,830;   -4,470; 4117,220;-0,00217
1045,14; 4083,100;   -4,050; 4061,130;-0,00234
1045,68; 4032,260;   -5,140; 4008,850;-0,00253
1046,22; 3976,380;   -4,180; 3961,040;-0,00168
1046,76; 3928,850;   -3,830; 3916,220;-0,00140
1047,30; 3874,910;   -4,700; 3874,350;-0,00006
1047,84; 3819,920;   -3,890; 3819,370;-0,00006
1048,38; 3764,360;   -3,850; 3777,200; 0,00148
1048,92; 3705,490;   -4,160; 3730,520; 0,00292
1049,46; 3657,310;   -3,800; 3679,990; 0,00268
1050,00; 3607,080;   -4,730; 3631,060; 0,00287
1050,55; 3562,460;   -4,000; 3586,370; 0,00290
1051,09; 3510,550;   -4,140; 3540,170; 0,00364
1051,63; 3462,450;   -4,290; 3480,570; 0,00226
1052,17; 3408,530;   -4,740; 3431,840; 0,00296
1052,71; 3352,130;   -4,660; 3374,760; 0,00292
1053,25; 3296,730;   -4,430; 3327,810; 0,00407
1053,79; 3241,000;   -3,780; 3264,770; 0,00317
1054,33; 3199,270;   -4,580; 3208,350; 0,00123
1054,87; 3138,840;   -4,130; 3160,030; 0,00292
1055,41; 3101,080;   -5,190; 3108,860; 0,00109
1055,95; 3045,620;   -4,700; 3042,650;-0,00042
1056,49; 2997,340;   -4,270; 2995,560;-0,00026
1057,03; 2961,080;   -4,700; 2945,860;-0,00223
1057,57; 2916,320;   -4,110; 2904,150;-0,00181
1058,11; 2883,720;   -4,640; 2865,940;-0,00268
1058,64; 2843,270;   -4,210; 2823,170;-0,00308
1059,18; 2808,860;   -4,250; 2787,160;-0,00336
1059,72; 2776,850;   -4,760; 2751,060;-0,00405
1060,26; 2736,930;   -4,650; 2718,280;-0,00296
1060,80; 2707,390;   -4,270; 2688,580;-0,00302
1061,34; 2672,600;   -4,550; 2655,190;-0,00283
1061,88; 2640,700;   -3,690; 2623,170;-0,00289
1062,42; 2612,530;   -4,530; 2589,070;-0,00391
1062,96; 2571,250;   -4,370; 2560,980;-0,00174
1063,50; 2540,450;   -4,500; 2534,200;-0,00107
1064,04; 2523,070;   -4,620; 2500,300;-0,00393
1064,58; 2487,210;   -4,360; 2477,880;-0,00163
1065,12; 2458,290;   -4,480; 2445,730;-0,00222
1065,65; 2432,530;   -4,660; 2417,910;-0,00261
1066,19; 2392,770;   -3,720; 2387,860;-0,00089
1066,73; 2366,120;   -4,950; 2359,940;-0,00113
1067,27; 2335,160;   -4,710; 2328,300;-0,00128
1067,81; 2305,800;   -4,360; 2297,320;-0,00160
1068,35; 2267,660;   -4,470; 2265,410;-0,00043
1068,89; 2238,690;   -4,390; 2237,980;-0,00014
1069,43; 2210,460;   -4,920; 2198,800;-0,00229
1069,96; 2177,860;   -3,860; 2180,010; 0,00043
1070,50; 2146,120;   -3,620; 2150,490; 0,00088
1071,04; 2121,640;   -4,540; 2122,820; 0,00024
1071,58; 2095,360;   -4,990; 2090,420;-0,00102
1072,12; 2055,970;   -4,970; 2059,790; 0,00080
1072,66; 2027,380;   -3,950; 2036,760; 0,00200
1073,19; 2001,210;   -3,800; 2005,050; 0,00083
1073,73; 1977,430;   -4,750; 1972,200;-0,00115
1074,27; 1947,330;   -3,630; 1945,700;-0,00036
1074,81; 1919,340;   -4,490; 1914,960;-0,00099
1075,35; 1895,960;   -4,760; 1890,160;-0,00133
1075,88; 1870,920;   -4,650; 1860,730;-0,00237
1076,42; 1845,080;   -4,410; 1835,620;-0,00223
1076,96; 1817,720;   -4,530; 1810,570;-0,00171
1077,50; 1795,100;   -4,250; 1781,790;-0,00322
1078,04; 1766,340;   -4,900; 1757,820;-0,00209
1078,57; 1735,910;   -4,230; 1735,000;-0,00023
1079,11; 1719,120;   -4,320; 1711,790;-0,00185
1079,65; 1692,360;   -3,610; 1684,090;-0,00212
1080,19; 1669,090;   -4,330; 1660,970;-0,00211
1080,72; 1646,590;   -4,330; 1636,600;-0,00264
1081,26; 1617,520;   -4,620; 1608,210;-0,00250
1081,80; 1598,440;   -4,520; 1582,630;-0,00430
1082,33; 1571,560;   -4,790; 1558,280;-0,00367
1082,87; 1549,730;   -4,360; 1540,340;-0,00263
1083,41; 1528,320;   -4,960; 1509,420;-0,00539
1083,95; 1501,910;   -4,110; 1489,530;-0,00358
1084,48; 1483,500;   -3,860; 1466,350;-0,00504
1085,02; 1459,830;   -4,610; 1442,050;-0,00531
1085,56; 1437,450;   -3,840; 1421,700;-0,00477
1086,09; 1419,500;   -4,420; 1399,340;-0,00619
1086,63; 1398,440;   -4,760; 1377,230;-0,00661
1087,17; 1373,070;   -4,230; 1356,980;-0,00510
1087,70; 1352,870;   -4,420; 1334,150;-0,00603
1088,24; 1329,310;   -3,590; 1314,230;-0,00494
1088,78; 1310,170;   -4,250; 1290,750;-0,00646
1089,31; 1286,550;   -4,350; 1270,660;-0,00538
1089,85; 1267,490;   -3,890; 1248,670;-0,00648
1090,39; 1241,550;   -4,920; 1230,530;-0,00386
1090,92; 1221,530;   -4,690; 1207,780;-0,00490
1091,46; 1202,660;   -5,300; 1191,320;-0,00410
1092,00; 1185,890;   -3,740; 1173,800;-0,00444
1092,53; 1161,180;   -4,250; 1151,540;-0,00361
1093,07; 1144,860;   -4,490; 1134,930;-0,00377
1093,60; 1123,700;   -3,930; 1116,310;-0,00286
1094,14; 1111,250;   -4,880; 1098,430;-0,00502
1094,68; 1093,350;   -4,790; 1083,220;-0,00402
1095,21; 1074,750;   -4,400; 1063,940;-0,00437
1095,75; 1059,260;   -4,200; 1050,660;-0,00353
1096,28; 1041,790;   -4,110; 1033,090;-0,00363
1096,82; 1024,740;   -4,300; 1018,540;-0,00262
1097,36; 1010,150;   -4,780; 1003,370;-0,00291
1097,89;  991,400;   -4,350;  989,840;-0,00068
1098,43;  979,010;   -4,090;  980,580; 0,00069
1098,96;  964,310;   -4,570;  967,980; 0,00164
1099,50;  949,590;   -4,350;  948,650;-0,00043
1100,03;  936,110;   -5,650;  942,200; 0,00280

