AE-588-10-1
Integration time [ms]:   9,690
Averaging Nr. [scans]: 100
Smoothing Nr. [pixels]: 0
Data measured with spectrometer [name]: 7420287SP
Wave   ;Sample   ;Dark     ;Reference;Absorbance
[nm]   ;[counts] ;[counts] ;[counts] ;[A.U]

 179,38;  -25,018;   -7,110;    8,998; 5,00000
 179,98;  -26,260;   -6,520;    6,195; 5,00000
 180,58;  -18,151;   -5,360;   15,793; 5,00000
 181,18;  -23,861;   -6,600;   10,880; 5,00000
 181,78;  -33,072;   -5,730;    0,149; 5,00000
 182,38;  -36,717;   -5,470;   -1,284; 5,00000
 182,97;  -32,562;   -7,650;    0,032; 5,00000
 183,57;  -35,137;   -5,780;   -2,994; 5,00000
 184,17;  -45,567;   -6,950;  -14,352; 0,00000
 184,77;  -48,960;   -7,260;  -17,755; 0,00000
 185,37;  -56,008;   -6,010;  -21,290; 0,00000
 185,97;  -60,565;   -7,850;  -29,278; 0,00000
 186,57;  -58,702;   -7,270;  -26,893; 0,00000
 187,17;  -69,319;   -6,520;  -37,024; 0,00000
 187,77;  -91,373;   -7,760;  -59,634; 0,00000
 188,37;  -84,417;   -6,630;  -51,348; 0,00000
 188,97; -104,548;   -7,450;  -72,675; 0,00000
 189,57; -105,891;   -6,490;  -73,390; 0,00000
 190,17; -123,840;   -6,540;  -89,085; 0,00000
 190,77; -130,619;   -8,530;  -97,963; 0,00000
 191,37; -144,497;   -6,100; -113,717; 0,00000
 191,96; -156,491;   -6,760; -124,998; 0,00000
 192,56; -194,675;   -7,360; -165,961; 0,00000
 193,16; -185,079;   -6,490; -154,105; 0,00000
 193,76; -160,677;   -8,480; -130,068; 0,00000
 194,36; -212,604;   -6,480; -183,996; 0,00000
 194,96; -214,405;   -6,370; -185,208; 0,00000
 195,56; -168,571;   -7,450; -137,778; 0,00000
 196,16; -127,924;   -6,530;  -94,179; 0,00000
 196,76;  -74,091;   -7,620;  -44,472; 0,00000
 197,36;  -64,019;   -6,760;  -32,495; 0,00000
 197,95;  -41,832;   -6,630;   -9,158; 0,00000
 198,55;  -48,725;   -7,140;  -17,366; 0,00000
 199,15;  -43,126;   -5,420;   -9,398; 0,00000
 199,75;  -30,979;   -7,280;    0,600; 5,00000
 200,35;  -44,012;   -6,500;  -12,091; 0,00000
 200,95;  -36,454;   -5,890;   -0,912; 5,00000
 201,55;  -36,138;   -7,490;   -4,202; 5,00000
 202,15;  -37,696;   -5,870;   -6,758; 0,00000
 202,74;  -26,327;   -6,560;    7,284; 5,00000
 203,34;  -34,493;   -6,450;   -3,337; 5,00000
 203,94;  -17,989;   -5,190;   15,602; 5,00000
 204,54;  -32,018;   -7,300;   -1,539; 5,00000
 205,14;  -21,890;   -5,430;   11,164; 5,00000
 205,74;  -28,290;   -6,400;    6,079; 5,00000
 206,34;  -27,358;   -6,650;    3,591; 5,00000
 206,93;  -25,576;   -6,110;   10,322; 5,00000
 207,53;  -27,992;   -6,770;    7,281; 5,00000
 208,13;  -30,910;   -5,560;    2,349; 5,00000
 208,73;  -21,219;   -5,300;   13,062; 5,00000
 209,33;  -35,851;   -7,080;   -3,437; 5,00000
 209,93;  -24,687;   -5,400;    9,487; 5,00000
 210,52;  -26,476;   -6,060;    6,322; 5,00000
 211,12;  -14,973;   -5,430;   19,505; 5,00000
 211,72;  -21,861;   -5,290;    8,287; 5,00000
 212,32;  -21,433;   -6,530;   12,050; 5,00000
 212,92;  -28,430;   -4,650;    7,862; 5,00000
 213,52;  -27,128;   -5,930;    9,794; 5,00000
 214,11;  -27,011;   -6,380;    6,579; 5,00000
 214,71;  -18,268;   -4,070;   15,585; 5,00000
 215,31;  -29,457;   -6,580;    6,759; 5,00000
 215,91;  -10,227;   -4,390;   25,378; 5,00000
 216,51;  -23,010;   -4,670;   12,137; 5,00000
 217,10;  -22,797;   -5,810;   12,000; 5,00000
 217,70;  -31,533;   -5,080;    6,749; 5,00000
 218,30;  -15,350;   -6,050;   19,058; 5,00000
 218,90;  -29,270;   -5,200;    7,512; 5,00000
 219,50;  -16,455;   -4,900;   19,810; 5,00000
 220,09;  -16,903;   -6,880;   19,293; 5,00000
 220,69;  -19,888;   -5,070;   17,937; 5,00000
 221,29;  -18,259;   -5,340;   22,893; 5,00000
 221,89;  -33,293;   -5,260;    1,006; 5,00000
 222,49;  -18,457;   -4,140;   21,670; 5,00000
 223,08;  -17,088;   -5,890;   20,255; 5,00000
 223,68;  -15,339;   -4,880;   22,503; 5,00000
 224,28;  -25,923;   -5,320;   10,607; 5,00000
 224,88;  -23,234;   -5,500;   12,982; 5,00000
 225,47;  -27,519;   -4,220;   12,209; 5,00000
 226,07;  -17,824;   -5,990;   20,955; 5,00000
 226,67;  -22,684;   -4,400;   12,554; 5,00000
 227,27;  -17,814;   -4,480;   22,967; 5,00000
 227,87;  -22,507;   -6,030;   16,357; 5,00000
 228,46;  -16,620;   -4,320;   22,787; 5,00000
 229,06;  -24,813;   -5,700;   15,349; 5,00000
 229,66;  -16,114;   -5,400;   21,405; 5,00000
 230,26;  -23,766;   -4,190;   16,324; 5,00000
 230,85;  -30,660;   -5,860;   10,231; 5,00000
 231,45;  -29,010;   -4,350;   12,619; 5,00000
 232,05;  -20,314;   -4,990;   21,312; 5,00000
 232,64;  -31,246;   -5,810;    8,131; 5,00000
 233,24;  -37,163;   -3,940;    4,103; 5,00000
 233,84;  -38,682;   -5,850;    1,998; 5,00000
 234,44;  -31,419;   -4,990;    7,686; 5,00000
 235,03;  -45,560;   -4,340;   -4,888; 0,00000
 235,63;  -36,416;   -6,290;    3,558; 5,00000
 236,23;  -24,942;   -3,870;   18,681; 5,00000
 236,83;  -23,035;   -4,960;   19,586; 5,00000
 237,42;  -26,844;   -4,900;   16,151; 5,00000
 238,02;  -41,495;   -4,130;    2,290; 5,00000
 238,62;  -21,132;   -6,100;   19,914; 5,00000
 239,21;  -24,895;   -4,420;   15,043; 5,00000
 239,81;  -25,823;   -4,890;   19,874; 5,00000
 240,41;  -29,605;   -5,200;   14,526; 5,00000
 241,00;  -30,248;   -3,940;   17,511; 5,00000
 241,60;  -30,834;   -6,280;   13,188; 5,00000
 242,20;  -29,659;   -4,720;   17,453; 5,00000
 242,80;  -30,145;   -4,690;   16,153; 5,00000
 243,39;  -20,563;   -6,000;   24,427; 5,00000
 243,99;  -34,402;   -4,510;   13,975; 5,00000
 244,59;  -30,849;   -6,250;   16,356; 5,00000
 245,18;  -33,208;   -5,160;   12,491; 5,00000
 245,78;  -35,037;   -5,160;   14,983; 5,00000
 246,38;  -35,908;   -6,590;    9,541; 5,00000
 246,97;  -23,301;   -4,720;   24,419; 5,00000
 247,57;  -21,229;   -5,680;   26,590; 5,00000
 248,17;  -23,444;   -5,180;   24,002; 5,00000
 248,76;  -26,482;   -4,270;   23,001; 5,00000
 249,36;  -19,970;   -7,360;   30,085; 5,00000
 249,96;  -25,101;   -5,160;   25,699; 5,00000
 250,55;  -14,107;   -5,180;   38,583; 5,00000
 251,15;  -25,058;   -6,350;   25,134; 5,00000
 251,75;  -18,284;   -3,970;   34,937; 5,00000
 252,34;  -23,658;   -5,740;   29,584; 5,00000
 252,94;   -9,864;   -4,710;   42,798; 5,00000
 253,54;  -24,450;   -4,830;   29,314; 5,00000
 254,13;  -22,182;   -6,310;   30,364; 5,00000
 254,73;   -6,642;   -4,130;   46,638; 5,00000
 255,32;  -29,698;   -5,920;   25,871; 5,00000
 255,92;  -16,922;   -5,050;   39,637; 5,00000
 256,52;  -22,016;   -4,610;   37,837; 5,00000
 257,11;  -20,066;   -6,680;   35,585; 5,00000
 257,71;   -5,367;   -4,610;   52,756; 5,00000
 258,31;  -19,201;   -5,460;   43,092; 5,00000
 258,90;  -22,491;   -6,310;   36,637; 5,00000
 259,50;  -17,221;   -5,030;   45,970; 5,00000
 260,09;  -19,653;   -6,180;   41,212; 5,00000
 260,69;  -15,781;   -4,680;   42,332; 5,00000
 261,29;  -14,935;   -5,280;   47,542; 5,00000
 261,88;  -18,220;   -6,120;   43,425; 5,00000
 262,48;  -16,498;   -5,140;   47,847; 5,00000
 263,07;  -22,699;   -6,100;   45,442; 5,00000
 263,67;  -17,788;   -5,540;   51,237; 5,00000
 264,27;   -6,870;   -5,320;   63,621; 5,00000
 264,86;  -14,713;   -6,770;   55,273; 5,00000
 265,46;  -12,180;   -5,420;   60,830; 5,00000
 266,05;   -4,751;   -5,650;   69,638; 1,92280
 266,65;  -13,736;   -5,700;   59,048; 5,00000
 267,24;  -15,209;   -4,180;   64,223; 5,00000
 267,84;  -13,287;   -6,430;   63,285; 5,00000
 268,44;  -22,841;   -4,380;   54,619; 5,00000
 269,03;  -16,296;   -5,730;   67,128; 5,00000
 269,63;  -15,133;   -6,560;   67,713; 5,00000
 270,22;  -13,540;   -3,970;   72,058; 5,00000
 270,82;  -17,008;   -6,230;   70,595; 5,00000
 271,41;  -13,433;   -4,610;   76,443; 5,00000
 272,01;  -25,290;   -4,490;   69,582; 5,00000
 272,61;   -7,839;   -6,490;   88,096; 5,00000
 273,20;  -14,709;   -4,670;   85,573; 5,00000
 273,80;  -12,007;   -6,180;   92,503; 5,00000
 274,39;  -11,144;   -5,030;   95,260; 5,00000
 274,99;  -12,848;   -4,470;   97,555; 5,00000
 275,58;   -7,698;   -5,830;  108,358; 5,00000
 276,18;  -14,447;   -4,390;  106,780; 5,00000
 276,77;   -4,231;   -5,880;  118,103; 1,87622
 277,37;   -9,308;   -5,920;  117,405; 5,00000
 277,96;  -14,064;   -5,320;  120,802; 5,00000
 278,56;   -3,687;   -5,710;  134,945; 1,84208
 279,15;   -8,916;   -4,950;  134,785; 5,00000
 279,75;  -20,150;   -4,870;  131,721; 5,00000
 280,34;   -8,924;   -6,060;  150,967; 5,00000
 280,94;   -6,684;   -4,760;  164,667; 5,00000
 281,53;  -17,822;   -5,510;  171,941; 5,00000
 282,13;  -16,669;   -5,010;  194,309; 5,00000
 282,73;   -7,217;   -4,240;  241,090; 5,00000
 283,32;   -7,617;   -5,800;  284,850; 5,00000
 283,92;  -16,999;   -3,980;  339,716; 5,00000
 284,51;   -1,560;   -5,290;  436,618; 2,07364
 285,10;  -13,291;   -6,110;  543,417; 5,00000
 285,70;  -15,533;   -4,410;  693,699; 5,00000
 286,29;   -6,994;   -5,850;  890,617; 5,00000
 286,89;   -0,227;   -4,520; 1115,283; 2,41640
 287,48;  -14,986;   -4,870; 1328,754; 5,00000
 288,08;  -10,395;   -5,910; 1560,469; 5,00000
 288,67;  -11,642;   -4,490; 1776,761; 5,00000
 289,27;  -16,028;   -5,600; 1962,901; 5,00000
 289,86;   -4,997;   -4,970; 2117,730; 5,00000
 290,46;   -5,560;   -4,980; 2195,367; 5,00000
 291,05;   -4,367;   -6,580; 2213,952; 3,00142
 291,65;   -9,251;   -3,890; 2278,119; 5,00000
 292,24;   -4,743;   -5,590; 2480,342; 3,46741
 292,84;   -6,224;   -6,110; 2882,134; 5,00000
 293,43;   -2,724;   -4,350; 3506,612; 3,33441
 294,03;   -5,083;   -6,250; 4279,066; 3,56501
 294,62;    0,597;   -3,900; 5178,679; 3,06159
 295,21;    8,899;   -6,020; 6114,689; 2,61306
 295,81;   14,083;   -6,160; 7028,427; 2,54097
 296,40;   12,869;   -4,770; 7862,193; 2,64933
 297,00;   31,730;   -5,680; 8549,895; 2,35926
 297,59;   43,999;   -5,440; 8965,089; 2,25875
 298,19;   64,044;   -5,120; 9274,428; 2,12765
 298,78;   64,268;   -6,640; 9809,121; 2,14123
 299,37;   84,011;   -3,870;10564,807; 2,08013
 299,97;  120,657;   -6,380;11220,006; 1,94631
 300,56;  132,784;   -4,940;11673,824; 1,92839
 301,16;  151,789;   -5,410;12015,332; 1,88348
 301,75;  172,454;   -6,700;12357,715; 1,83895
 302,35;  189,186;   -4,500;12780,091; 1,81959
 302,94;  213,732;   -5,790;13216,469; 1,77983
 303,53;  251,723;   -5,510;13577,342; 1,72266
 304,13;  276,657;   -4,390;13858,420; 1,69307
 304,72;  298,473;   -4,760;14134,757; 1,66866
 305,32;  332,110;   -4,930;14383,817; 1,63034
 305,91;  352,233;   -4,660;14619,439; 1,61253
 306,50;  380,341;   -6,610;14802,670; 1,58288
 307,10;  413,272;   -4,000;14978,785; 1,55517
 307,69;  435,545;   -5,750;15123,970; 1,53510
 308,28;  457,314;   -4,480;15203,757; 1,51763
 308,88;  489,588;   -4,830;15309,841; 1,49101
 309,47;  498,215;   -5,810;15345,229; 1,48369
 310,07;  518,751;   -4,750;15360,771; 1,46763
 310,66;  539,140;   -5,730;15396,962; 1,45130
 311,25;  579,152;   -5,110;15490,037; 1,42359
 311,85;  605,698;   -4,860;15598,062; 1,40748
 312,44;  650,257;   -6,680;15731,047; 1,37942
 313,03;  703,955;   -4,650;15872,220; 1,35036
 313,63;  764,534;   -5,410;16008,396; 1,31804
 314,22;  832,462;   -5,320;16089,435; 1,28355
 314,81;  910,116;   -4,550;16143,154; 1,24685
 315,41;  994,511;   -6,360;16195,409; 1,20918
 316,00; 1079,757;   -4,980;16203,836; 1,17443
 316,59; 1181,019;   -5,590;16209,926; 1,13562
 317,19; 1284,759;   -6,090;16181,987; 1,09832
 317,78; 1398,543;   -4,390;16235,057; 1,06353
 318,37; 1519,816;   -6,640;16408,174; 1,03155
 318,97; 1641,895;   -5,200;16631,344; 1,00434
 319,56; 1786,018;   -4,420;16923,391; 0,97564
 320,15; 1922,810;   -5,910;17168,990; 0,94962
 320,75; 2051,886;   -4,420;17406,980; 0,92775
 321,34; 2174,149;   -5,770;17556,967; 0,90615
 321,93; 2304,179;   -5,350;17708,092; 0,88478
 322,53; 2401,588;   -3,880;17793,021; 0,86914
 323,12; 2501,486;   -6,090;17860,770; 0,85279
 323,71; 2579,908;   -4,820;17853,564; 0,83943
 324,31; 2670,319;   -4,460;17858,896; 0,82468
 324,90; 2757,865;   -6,030;17859,250; 0,81049
 325,49; 2829,291;   -4,500;17828,246; 0,79885
 326,09; 2900,075;   -5,790;17771,186; 0,78658
 326,68; 2966,560;   -4,620;17735,041; 0,77602
 327,27; 3035,904;   -4,600;17659,313; 0,76414
 327,86; 3111,099;   -5,770;17643,656; 0,75301
 328,46; 3184,766;   -4,120;17628,922; 0,74269
 329,05; 3259,427;   -5,700;17606,910; 0,73192
 329,64; 3320,766;   -5,220;17584,555; 0,72334
 330,23; 3396,875;   -4,640;17566,141; 0,71312
 330,83; 3427,606;   -6,180;17479,148; 0,70690
 331,42; 3508,957;   -3,990;17390,023; 0,69473
 332,01; 3541,607;   -6,100;17273,080; 0,68758
 332,61; 3572,972;   -5,490;17128,625; 0,68017
 333,20; 3605,952;   -4,450;17016,805; 0,67344
 333,79; 3655,309;   -6,430;17003,967; 0,66703
 334,38; 3756,496;   -5,440;17104,178; 0,65783
 334,98; 3847,722;   -4,980;17284,174; 0,65201
 335,57; 3962,066;   -6,500;17528,475; 0,64527
 336,16; 4054,790;   -4,050;17684,371; 0,63929
 336,75; 4136,545;   -5,500;17804,752; 0,63346
 337,34; 4204,288;   -5,350;17858,355; 0,62773
 337,94; 4261,592;   -4,520;17874,357; 0,62231
 338,53; 4294,264;   -6,340;17871,621; 0,61879
 339,12; 4336,244;   -4,190;17810,111; 0,61324
 339,71; 4358,603;   -5,130;17711,260; 0,60852
 340,31; 4373,377;   -5,420;17551,670; 0,60310
 340,90; 4353,299;   -4,710;17330,453; 0,59964
 341,49; 4280,418;   -6,270;16924,146; 0,59655
 342,08; 4209,409;   -5,020;16494,426; 0,59273
 342,67; 4176,098;   -5,610;16237,401; 0,58931
 343,27; 4206,575;   -5,550;16271,576; 0,58708
 343,86; 4285,022;   -4,290;16469,127; 0,58440
 344,45; 4359,049;   -5,490;16656,480; 0,58179
 345,04; 4424,053;   -4,790;16774,129; 0,57847
 345,63; 4461,692;   -4,500;16811,758; 0,57579
 346,23; 4494,272;   -6,400;16813,229; 0,57254
 346,82; 4487,926;   -4,430;16755,629; 0,57180
 347,41; 4493,577;   -5,820;16664,383; 0,56879
 348,00; 4477,436;   -5,440;16497,873; 0,56601
 348,59; 4454,203;   -4,310;16322,787; 0,56372
 349,19; 4440,282;   -6,890;16211,792; 0,56193
 349,78; 4441,229;   -4,490;16092,343; 0,55880
 350,37; 4428,576;   -5,390;15990,562; 0,55722
 350,96; 4407,495;   -5,710;15871,996; 0,55603
 351,55; 4375,330;   -3,900;15672,729; 0,55385
 352,14; 4353,388;   -6,120;15517,991; 0,55157
 352,74; 4329,610;   -4,590;15329,781; 0,54876
 353,33; 4272,838;   -4,630;15083,347; 0,54744
 353,92; 4210,405;   -6,470;14803,760; 0,54557
 354,51; 4154,387;   -4,210;14536,847; 0,54365
 355,10; 4099,957;   -5,370;14310,247; 0,54246
 355,69; 4065,375;   -4,430;14173,033; 0,54202
 356,28; 4099,909;   -5,030;14197,122; 0,53905
 356,88; 4122,927;   -6,960;14259,414; 0,53838
 357,47; 4172,600;   -4,450;14335,252; 0,53567
 358,06; 4209,668;   -5,810;14383,135; 0,53318
 358,65; 4229,993;   -5,410;14395,193; 0,53149
 359,24; 4228,589;   -4,760;14324,442; 0,52954
 359,83; 4236,192;   -5,780;14257,117; 0,52664
 360,42; 4229,689;   -4,390;14180,060; 0,52505
 361,01; 4230,585;   -5,410;14106,137; 0,52262
 361,61; 4210,667;   -5,790;13997,793; 0,52129
 362,20; 4208,763;   -4,580;13887,937; 0,51815
 362,79; 4165,149;   -5,940;13684,633; 0,51617
 363,38; 4111,067;   -4,890;13428,544; 0,51372
 363,97; 4031,764;   -4,250;13042,817; 0,50956
 364,56; 3915,406;   -6,270;12641,035; 0,50853
 365,15; 3861,799;   -4,670;12473,142; 0,50882
 365,74; 3949,771;   -6,200;12681,175; 0,50612
 366,33; 4100,163;   -5,230;13044,999; 0,50226
 366,92; 4202,333;   -4,710;13285,856; 0,49957
 367,51; 4236,564;   -5,970;13346,582; 0,49794
 368,11; 4244,305;   -4,020;13287,397; 0,49535
 368,70; 4275,558;   -5,120;13288,441; 0,49213
 369,29; 4273,736;   -4,850;13200,765; 0,48946
 369,88; 4241,907;   -4,640;12994,266; 0,48587
 370,47; 4211,891;   -5,700;12887,893; 0,48531
 371,06; 4211,679;   -4,480;12828,213; 0,48340
 371,65; 4226,985;   -4,740;12778,499; 0,48012
 372,24; 4210,757;   -6,210;12679,279; 0,47831
 372,83; 4194,078;   -4,530;12579,400; 0,47671
 373,42; 4187,633;   -6,220;12480,546; 0,47384
 374,01; 4169,321;   -5,240;12390,730; 0,47267
 374,60; 4199,957;   -4,640;12375,426; 0,46900
 375,19; 4199,598;   -5,830;12350,048; 0,46806
 375,78; 4197,959;   -3,930;12327,173; 0,46756
 376,37; 4246,201;   -5,020;12448,391; 0,46677
 376,96; 4349,391;   -5,550;12699,714; 0,46500
 377,55; 4465,262;   -4,650;13002,878; 0,46390
 378,14; 4607,848;   -6,260;13329,712; 0,46094
 378,73; 4729,124;   -4,040;13644,688; 0,45994
 379,32; 4745,294;   -5,260;13588,305; 0,45659
 379,91; 4704,880;   -5,860;13392,578; 0,45397
 380,50; 4693,179;   -4,950;13318,916; 0,45271
 381,09; 4632,930;   -5,580;13148,945; 0,45270
 381,68; 4636,915;   -4,800;13154,610; 0,45256
 382,27; 4675,985;   -5,540;13204,130; 0,45050
 382,86; 4662,901;   -6,540;13085,866; 0,44775
 383,45; 4583,270;   -4,510;12889,805; 0,44880
 384,04; 4505,196;   -5,600;12605,229; 0,44649
 384,63; 4383,032;   -5,930;12225,111; 0,44510
 385,22; 4288,799;   -4,820;11973,016; 0,44555
 385,81; 4330,558;   -6,550;12081,691; 0,44516
 386,40; 4455,238;   -4,610;12450,788; 0,44604
 386,99; 4628,925;   -5,510;12898,586; 0,44473
 387,58; 4753,526;   -6,170;13250,120; 0,44484
 388,17; 4833,026;   -4,490;13438,625; 0,44388
 388,76; 4797,480;   -5,690;13266,298; 0,44141
 389,35; 4699,060;   -4,390;12970,575; 0,44069
 389,94; 4702,557;   -5,090;12965,490; 0,44016
 390,53; 4726,569;   -6,660;13052,604; 0,44076
 391,12; 4811,567;   -4,090;13248,967; 0,43966
 391,71; 4984,280;   -5,660;13687,788; 0,43842
 392,30; 5186,220;   -4,980;14159,938; 0,43595
 392,89; 5176,232;   -4,920;14090,508; 0,43465
 393,48; 4923,807;   -6,070;13416,310; 0,43499
 394,07; 4774,826;   -4,390;12990,309; 0,43441
 394,66; 4719,875;   -5,230;12821,199; 0,43369
 395,25; 4641,794;   -5,410;12623,845; 0,43419
 395,84; 4646,296;   -3,960;12605,530; 0,43322
 396,43; 4724,222;   -6,160;12805,306; 0,43270
 397,01; 4894,382;   -4,690;13258,662; 0,43254
 397,60; 5150,313;   -4,390;13915,010; 0,43142
 398,19; 5319,968;   -6,520;14320,738; 0,42972
 398,78; 5191,966;   -4,780;13913,148; 0,42784
 399,37; 4987,075;   -5,500;13338,616; 0,42697
 399,96; 4826,976;   -4,400;12904,796; 0,42683
 400,55; 4781,823;   -5,160;12782,150; 0,42672
 401,14; 4712,364;   -6,120;12560,469; 0,42541
 401,73; 4602,578;   -4,310;12303,928; 0,42679
 402,32; 4568,365;   -5,010;12197,703; 0,42622
 402,91; 4548,057;   -5,470;12126,181; 0,42557
 403,49; 4542,058;   -4,330;12114,188; 0,42578
 404,08; 4550,417;   -6,270;12130,782; 0,42546
 404,67; 4566,904;   -4,520;12163,096; 0,42515
 405,26; 4483,040;   -5,270;11984,179; 0,42672
 405,85; 4279,615;   -5,410;11429,987; 0,42630
 406,44; 4109,051;   -4,180;10996,220; 0,42723
 407,03; 4059,619;   -6,090;10907,043; 0,42881
 407,62; 4119,750;   -4,930;11104,370; 0,43030
 408,20; 4267,804;   -5,010;11478,955; 0,42938
 408,79; 4282,665;   -6,000;11509,460; 0,42896
 409,38; 4236,488;   -4,270;11388,948; 0,42920
 409,97; 4117,594;   -5,550;11076,298; 0,42938
 410,56; 3966,336;   -4,660;10733,605; 0,43203
 411,15; 3863,518;   -4,520;10500,056; 0,43389
 411,73; 3805,744;   -6,800;10382,046; 0,43535
 412,32; 3786,083;   -4,650;10360,567; 0,43686
 412,91; 3743,424;   -5,740;10265,272; 0,43768
 413,50; 3668,018;   -5,650;10075,335; 0,43840
 414,09; 3553,757;   -4,440; 9793,643; 0,43991
 414,68; 3479,720;   -6,240; 9629,455; 0,44156
 415,26; 3462,510;   -4,460; 9654,133; 0,44496
 415,85; 3513,663;   -5,050; 9865,457; 0,44796
 416,44; 3564,535;   -6,190;10028,993; 0,44877
 417,03; 3585,106;   -4,610;10144,815; 0,45138
 417,62; 3614,546;   -5,980;10267,702; 0,45295
 418,21; 3652,089;   -4,100;10469,013; 0,45705
 418,79; 3716,681;   -3,930;10688,229; 0,45845
 419,38; 3773,502;   -5,820;10904,525; 0,46042
 419,97; 3863,633;   -3,780;11285,066; 0,46523
 420,56; 4058,506;   -5,950;11926,382; 0,46772
 421,15; 4273,967;   -5,110;12596,360; 0,46907
 421,73; 4229,864;   -4,140;12471,731; 0,46932
 422,32; 3996,329;   -6,020;11833,822; 0,47103
 422,91; 3777,433;   -4,410;11259,720; 0,47399
 423,50; 3646,124;   -5,380;10914,259; 0,47574
 424,08; 3589,710;   -6,220;10830,341; 0,47908
 424,67; 3551,114;   -4,380;10776,268; 0,48174
 425,26; 3427,876;   -6,480;10476,968; 0,48466
 425,85; 3314,323;   -5,190;10196,813; 0,48761
 426,43; 3276,601;   -5,300;10211,754; 0,49320
 427,02; 3361,606;   -5,340;10496,108; 0,49401
 427,61; 3355,052;   -4,330;10585,611; 0,49863
 428,20; 3434,085;   -5,260;10858,340; 0,49950
 428,79; 3642,367;   -5,140;11600,280; 0,50266
 429,37; 3962,802;   -3,820;12696,931; 0,50541
 429,96; 4021,588;   -6,360;12891,401; 0,50543
 430,55; 3822,066;   -4,620;12251,905; 0,50554
 431,13; 3440,124;   -5,180;11069,716; 0,50711
 431,72; 3114,128;   -5,530;10133,215; 0,51188
 432,31; 3010,065;   -4,780; 9925,630; 0,51770
 432,90; 3212,889;   -5,750;10643,863; 0,51966
 433,48; 3454,379;   -4,950;11457,544; 0,52029
 434,07; 3215,020;   -5,120;10676,022; 0,52074
 434,66; 3072,397;   -6,690;10276,490; 0,52371
 435,25; 3006,969;   -4,470;10095,280; 0,52554
 435,83; 3020,909;   -6,100;10233,827; 0,52928
 436,42; 2994,048;   -4,960;10170,119; 0,53056
 437,01; 2871,335;   -4,610; 9786,746; 0,53206
 437,59; 2837,618;   -6,640; 9749,056; 0,53529
 438,18; 2882,861;   -4,720; 9920,453; 0,53620
 438,77; 2841,223;   -4,960; 9843,400; 0,53910
 439,35; 2776,545;   -4,970; 9651,257; 0,54053
 439,94; 2738,374;   -4,330; 9618,989; 0,54515
 440,53; 2951,459;   -6,110;10410,790; 0,54680
 441,11; 3193,885;   -5,210;11278,899; 0,54744
 441,70; 3133,781;   -4,840;11069,691; 0,54759
 442,29; 3043,669;   -5,300;10785,061; 0,54888
 442,87; 3086,624;   -4,390;11041,802; 0,55311
 443,46; 3097,415;   -6,060;11081,647; 0,55299
 444,05; 2979,495;   -4,660;10754,773; 0,55697
 444,63; 2922,028;   -4,780;10548,992; 0,55701
 445,22; 2837,940;   -6,370;10276,085; 0,55812
 445,81; 2829,036;   -4,390;10333,277; 0,56211
 446,39; 2821,328;   -4,640;10281,625; 0,56109
 446,98; 2664,861;   -4,960; 9820,440; 0,56587
 447,57; 2571,508;   -3,710; 9485,115; 0,56640
 448,15; 2518,760;   -6,640; 9340,465; 0,56835
 448,74; 2532,837;   -4,560; 9475,474; 0,57242
 449,33; 2532,709;   -5,240; 9513,834; 0,57411
 449,91; 2500,793;   -5,460; 9419,184; 0,57524
 450,50; 2454,351;   -4,760; 9262,544; 0,57618
 451,08; 2406,894;   -6,070; 9124,941; 0,57797
 451,67; 2410,522;   -4,300; 9156,545; 0,57905
 452,26; 2351,803;   -3,990; 8956,534; 0,58020
 452,84; 2248,748;   -5,810; 8562,532; 0,57984
 453,43; 2176,967;   -4,520; 8353,617; 0,58336
 454,02; 2142,378;   -6,000; 8253,918; 0,58487
 454,60; 2189,032;   -4,970; 8506,944; 0,58879
 455,19; 2238,803;   -5,800; 8685,310; 0,58794
 455,77; 2135,945;   -6,120; 8302,359; 0,58869
 456,36; 2091,876;   -4,170; 8197,319; 0,59249
 456,95; 2154,161;   -5,470; 8452,063; 0,59286
 457,53; 2220,091;   -5,520; 8688,230; 0,59176
 458,12; 2219,175;   -4,440; 8706,320; 0,59300
 458,70; 2209,112;   -6,350; 8714,096; 0,59507
 459,29; 2236,101;   -4,310; 8884,757; 0,59853
 459,87; 2203,502;   -5,620; 8730,492; 0,59710
 460,46; 2176,298;   -5,920; 8684,689; 0,60015
 461,05; 2122,538;   -4,670; 8434,683; 0,59850
 461,63; 1912,205;   -5,640; 7638,243; 0,60050
 462,22; 1820,916;   -5,000; 7377,562; 0,60673
 462,80; 1862,470;   -4,730; 7579,165; 0,60870
 463,39; 1948,447;   -6,030; 7920,697; 0,60806
 463,97; 2006,632;   -4,330; 8131,772; 0,60701
 464,56; 2114,566;   -5,360; 8622,482; 0,60958
 465,14; 2203,168;   -4,760; 8990,919; 0,61005
 465,73; 2200,709;   -3,120; 8860,700; 0,60444
 466,31; 1931,860;   -5,760; 7830,991; 0,60687
 466,90; 1777,809;   -4,090; 7216,580; 0,60769
 467,49; 1718,593;   -4,290; 7011,400; 0,60981
 468,07; 1659,083;   -5,660; 6775,029; 0,60993
 468,66; 1575,135;   -5,020; 6438,934; 0,61045
 469,24; 1518,891;   -6,240; 6212,130; 0,61037
 469,83; 1477,943;   -4,510; 6051,877; 0,61123
 470,41; 1466,779;   -4,790; 6020,390; 0,61219
 471,00; 1454,728;   -6,220; 6002,212; 0,61413
 471,58; 1489,736;   -3,970; 6134,544; 0,61380
 472,17; 1524,277;   -5,420; 6260,077; 0,61235
 472,75; 1597,459;   -4,340; 6497,520; 0,60843
 473,34; 1628,166;   -4,640; 6634,969; 0,60921
 473,92; 1632,921;   -6,070; 6601,430; 0,60546
 474,51; 1714,122;   -4,240; 6916,545; 0,60504
 475,09; 1766,816;   -5,720; 7104,314; 0,60328
 475,68; 1676,442;   -5,460; 6712,481; 0,60144
 476,26; 1633,489;   -4,020; 6530,137; 0,60101
 476,85; 1578,973;   -6,180; 6292,899; 0,59921
 477,43; 1626,543;   -4,390; 6504,901; 0,60110
 478,01; 1689,256;   -5,370; 6647,962; 0,59397
 478,60; 1649,451;   -6,120; 6471,654; 0,59248
 479,18; 1697,610;   -4,250; 6621,395; 0,59030
 479,77; 1802,950;   -6,160; 6975,782; 0,58651
 480,35; 1806,364;   -5,200; 6876,148; 0,57962
 480,94; 1818,135;   -4,500; 6920,330; 0,57971
 481,52; 1875,399;   -6,170; 7078,149; 0,57578
 482,11; 1777,974;   -3,850; 6632,005; 0,57103
 482,69; 1725,561;   -5,220; 6390,371; 0,56764
 483,27; 1748,174;   -5,110; 6471,612; 0,56750
 483,86; 1879,991;   -4,630; 6928,670; 0,56572
 484,44; 2230,835;   -5,120; 8190,856; 0,56414
 485,03; 4113,295;   -3,890;15113,356; 0,56487
 485,61; 6979,859;   -5,060;24322,736; 0,54194
 486,20; 4625,224;   -5,780;15510,539; 0,52511
 486,78; 2751,298;   -4,650; 9340,438; 0,53031
 487,36; 2086,952;   -6,270; 7115,529; 0,53177
 487,95; 1773,923;   -4,590; 6062,471; 0,53292
 488,53; 1727,224;   -4,860; 5871,479; 0,53054
 489,12; 1687,498;   -6,480; 5669,852; 0,52516
 489,70; 1623,241;   -4,090; 5438,611; 0,52434
 490,28; 1620,161;   -5,820; 5392,220; 0,52112
 490,87; 1677,745;   -4,040; 5496,718; 0,51465
 491,45; 1687,558;   -3,860; 5460,720; 0,50931
 492,04; 1716,294;   -5,990; 5485,119; 0,50356
 492,62; 1722,935;   -4,510; 5467,521; 0,50074
 493,20; 1790,415;   -5,600; 5578,742; 0,49266
 493,79; 1809,333;   -5,330; 5616,836; 0,49111
 494,37; 1825,317;   -4,370; 5576,673; 0,48434
 494,95; 1762,922;   -6,470; 5340,182; 0,48026
 495,54; 1904,717;   -3,440; 5765,851; 0,48051
 496,12; 2095,006;   -5,470; 6213,000; 0,47137
 496,71; 1912,252;   -6,210; 5574,493; 0,46374
 497,29; 1723,347;   -4,670; 5042,672; 0,46551
 497,87; 1716,543;   -5,230; 5006,571; 0,46402
 498,46; 1767,834;   -4,960; 5161,877; 0,46457
 499,04; 1879,150;   -5,080; 5455,535; 0,46211
 499,62; 1902,076;   -6,210; 5472,297; 0,45802
 500,21; 1830,840;   -4,440; 5243,382; 0,45628
 500,79; 1944,745;   -5,780; 5516,692; 0,45198
 501,37; 2006,315;   -4,850; 5623,882; 0,44696
 501,96; 2044,051;   -5,060; 5679,320; 0,44312
 502,54; 2037,836;   -6,430; 5638,692; 0,44114
 503,12; 2057,025;   -4,120; 5658,858; 0,43894
 503,71; 1979,293;   -5,740; 5425,757; 0,43715
 504,29; 1971,835;   -5,680; 5341,613; 0,43201
 504,87; 2001,226;   -4,140; 5380,955; 0,42900
 505,45; 2034,341;   -5,420; 5373,715; 0,42113
 506,04; 2139,702;   -3,420; 5558,190; 0,41415
 506,62; 2063,356;   -5,020; 5246,018; 0,40462
 507,20; 2037,575;   -5,990; 5120,641; 0,39944
 507,79; 2123,310;   -3,890; 5244,935; 0,39225
 508,37; 2147,002;   -5,960; 5191,644; 0,38277
 508,95; 2059,045;   -5,310; 4920,298; 0,37768
 509,53; 2089,930;   -4,720; 4924,208; 0,37164
 510,12; 2098,327;   -6,350; 4899,899; 0,36756
 510,70; 2061,292;   -4,010; 4748,836; 0,36197
 511,28; 2027,540;   -5,130; 4605,229; 0,35567
 511,87; 1945,416;   -5,470; 4382,706; 0,35205
 512,45; 1970,996;   -4,440; 4416,259; 0,34983
 513,03; 1981,904;   -5,800; 4391,799; 0,34486
 513,61; 1943,852;   -3,880; 4274,630; 0,34176
 514,20; 1939,442;   -4,780; 4210,569; 0,33609
 514,78; 1866,831;   -5,880; 4033,147; 0,33381
 515,36; 1927,308;   -4,680; 4131,142; 0,33056
 515,94; 2041,690;   -5,760; 4305,274; 0,32337
 516,52; 2069,655;   -4,620; 4320,483; 0,31913
 517,11; 2000,811;   -4,890; 4128,679; 0,31406
 517,69; 1972,168;   -6,420; 4050,334; 0,31182
 518,27; 2033,026;   -3,610; 4135,854; 0,30803
 518,85; 2190,256;   -5,530; 4344,704; 0,29692
 519,44; 2097,333;   -5,590; 4137,666; 0,29452
 520,02; 2011,304;   -4,930; 3922,927; 0,28961
 520,60; 2056,509;   -5,740; 4000,346; 0,28838
 521,18; 2110,160;   -4,400; 4074,244; 0,28530
 521,76; 2129,646;   -5,590; 4085,933; 0,28244
 522,35; 2276,509;   -5,800; 4291,255; 0,27480
 522,93; 2380,930;   -4,110; 4437,493; 0,27004
 523,51; 2525,037;   -6,130; 4665,015; 0,26610
 524,09; 2620,675;   -4,020; 4787,945; 0,26143
 524,67; 2672,296;   -4,220; 4842,116; 0,25784
 525,26; 2805,913;   -5,760; 5024,741; 0,25265
 525,84; 2963,353;   -3,820; 5259,229; 0,24889
 526,42; 3147,511;   -5,800; 5528,952; 0,24433
 527,00; 3289,557;   -4,910; 5738,248; 0,24137
 527,58; 3434,295;   -4,270; 5940,199; 0,23774
 528,16; 3759,303;   -6,430; 6448,524; 0,23404
 528,75; 4000,270;   -4,290; 6767,192; 0,22813
 529,33; 4026,042;   -5,040; 6747,773; 0,22406
 529,91; 4044,650;   -5,230; 6738,563; 0,22146
 530,49; 4080,560;   -4,620; 6758,463; 0,21893
 531,07; 4133,124;   -6,070; 6780,956; 0,21476
 531,65; 4165,377;   -4,880; 6775,537; 0,21109
 532,23; 4184,665;   -5,010; 6762,517; 0,20825
 532,82; 4347,985;   -5,590; 6974,594; 0,20502
 533,40; 4367,150;   -3,630; 6954,271; 0,20192
 533,98; 4336,735;   -5,740; 6846,630; 0,19810
 534,56; 4285,739;   -4,040; 6740,677; 0,19653
 535,14; 4211,167;   -4,780; 6580,928; 0,19371
 535,72; 4073,521;   -6,250; 6318,303; 0,19039
 536,30; 3926,722;   -4,290; 6070,458; 0,18902
 536,88; 3987,123;   -5,730; 6129,496; 0,18655
 537,47; 4176,649;   -5,090; 6398,243; 0,18505
 538,05; 4307,887;   -4,710; 6564,664; 0,18279
 538,63; 4431,014;   -6,180; 6689,292; 0,17867
 539,21; 4500,735;   -4,600; 6745,702; 0,17560
 539,79; 4513,631;   -5,160; 6740,590; 0,17401
 540,37; 4670,364;   -5,600; 6961,065; 0,17315
 540,95; 4859,001;   -4,440; 7196,376; 0,17044
 541,53; 4927,328;   -5,820; 7232,527; 0,16652
 542,11; 5006,260;   -4,090; 7309,454; 0,16426
 542,69; 5050,071;   -4,960; 7328,966; 0,16161
 543,27; 5141,223;   -6,420; 7433,877; 0,15998
 543,85; 5247,321;   -4,370; 7548,492; 0,15781
 544,44; 5325,236;   -5,890; 7619,046; 0,15542
 545,02; 5281,344;   -4,910; 7528,551; 0,15385
 545,60; 5206,811;   -4,650; 7408,982; 0,15307
 546,18; 5308,666;   -5,240; 7539,811; 0,15225
 546,76; 5619,728;   -4,960; 7946,127; 0,15033
 547,34; 6056,911;   -4,800; 8503,064; 0,14723
 547,92; 6282,540;   -4,980; 8748,396; 0,14370
 548,50; 6188,868;   -4,610; 8588,105; 0,14220
 549,08; 6224,715;   -6,410; 8615,825; 0,14105
 549,66; 6474,361;   -4,320; 8932,722; 0,13971
 550,24; 6727,731;   -4,990; 9209,013; 0,13626
 550,82; 6958,511;   -5,360; 9498,965; 0,13507
 551,40; 7491,591;   -3,300;10238,481; 0,13561
 551,98; 7985,852;   -5,440;10860,234; 0,13344
 552,56; 8175,443;   -4,820;11100,096; 0,13275
 553,14; 8445,887;   -4,670;11432,398; 0,13143
 553,72; 8670,330;   -6,140;11711,830; 0,13051
 554,30; 8879,305;   -4,050;11982,819; 0,13013
 554,88; 9330,793;   -5,750;12572,264; 0,12943
 555,46; 9659,131;   -4,880;12963,958; 0,12774
 556,04; 9788,630;   -4,010;13082,517; 0,12592
 556,62; 9868,631;   -6,440;13154,718; 0,12475
 557,20;10055,813;   -3,950;13370,153; 0,12368
 557,78;10199,934;   -5,340;13525,174; 0,12249
 558,36;10281,025;   -5,980;13585,824; 0,12099
 558,94;10429,824;   -4,310;13770,318; 0,12062
 559,52;10709,294;   -6,060;14147,013; 0,12084
 560,10;11000,495;   -4,370;14486,854; 0,11952
 560,68;11152,935;   -4,570;14662,172; 0,11877
 561,26;11210,771;   -6,000;14646,192; 0,11603
 561,84;11221,894;   -4,310;14644,543; 0,11557
 562,42;11395,677;   -6,610;14826,505; 0,11424
 563,00;11682,137;   -4,630;15138,292; 0,11252
 563,58;11996,476;   -4,310;15494,233; 0,11108
 564,15;12255,652;   -5,780;15798,239; 0,11023
 564,73;12493,479;   -4,090;16136,785; 0,11110
 565,31;12721,470;   -5,560;16434,076; 0,11117
 565,89;13038,550;   -5,280;16852,828; 0,11140
 566,47;13326,581;   -4,100;17266,021; 0,11244
 567,05;13843,479;   -5,790;17859,629; 0,11059
 567,63;14113,982;   -4,890;18165,754; 0,10957
 568,21;14515,573;   -4,440;18678,672; 0,10948
 568,79;14956,687;   -6,050;19237,020; 0,10926
 569,37;15607,175;   -4,080;20062,637; 0,10904
 569,95;15886,103;   -6,120;20383,936; 0,10823
 570,53;16291,412;   -4,300;20939,088; 0,10897
 571,10;16554,645;   -4,380;21241,170; 0,10823
 571,68;16688,352;   -6,390;21372,480; 0,10741
 572,26;16194,278;   -4,050;20790,295; 0,10848
 572,84;16973,480;   -5,440;21854,734; 0,10974
 573,42;17736,859;   -4,400;22685,396; 0,10685
 574,00;18334,914;   -4,360;23371,271; 0,10538
 574,58;18313,684;   -5,410;23298,857; 0,10453
 575,16;17771,859;   -4,450;22566,332; 0,10371
 575,73;17789,875;   -4,990;22718,398; 0,10618
 576,31;18721,180;   -5,050;23878,748; 0,10565
 576,89;19364,945;   -4,890;24686,297; 0,10542
 577,47;20580,994;   -5,640;26187,012; 0,10459
 578,05;19884,586;   -3,830;25106,822; 0,10126
 578,63;18918,307;   -4,660;23921,383; 0,10188
 579,21;19048,844;   -5,300;24169,705; 0,10338
 579,78;19528,879;   -4,120;24789,994; 0,10358
 580,36;20064,252;   -5,990;25506,721; 0,10420
 580,94;21764,072;   -4,930;27754,170; 0,10557
 581,52;22146,813;   -4,210;28000,449; 0,10184
 582,10;21201,484;   -6,520;26744,906; 0,10085
 582,67;20152,797;   -4,510;25411,705; 0,10068
 583,25;19796,434;   -5,530;24988,957; 0,10114
 583,83;20177,277;   -5,310;25497,186; 0,10161
 584,41;20953,389;   -4,260;26493,873; 0,10187
 584,99;21508,379;   -6,050;27163,625; 0,10135
 585,57;21205,410;   -4,600;26773,727; 0,10124
 586,14;20921,502;   -4,960;26543,770; 0,10335
 586,72;21360,885;   -5,530;27203,932; 0,10499
 587,30;21566,180;   -4,110;27436,443; 0,10454
 587,88;21509,799;   -5,800;27388,404; 0,10491
 588,45;21543,898;   -4,560;27443,031; 0,10509
 589,03;21632,918;   -4,130;27546,209; 0,10493
 589,61;21872,182;   -5,140;27904,295; 0,10576
 590,19;22029,199;   -4,280;28123,516; 0,10605
 590,77;22145,805;   -5,400;28409,002; 0,10814
 591,34;22393,510;   -4,750;28784,891; 0,10902
 591,92;22734,029;   -4,900;29212,699; 0,10887
 592,50;23238,691;   -6,440;29840,543; 0,10857
 593,08;23281,514;   -3,930;29976,813; 0,10976
 593,65;23261,340;   -5,330;29944,469; 0,10966
 594,23;23371,793;   -5,390;30009,059; 0,10854
 594,81;23657,006;   -4,220;30234,799; 0,10653
 595,39;23797,688;   -5,910;30391,623; 0,10620
 595,96;23898,498;   -4,390;30590,801; 0,10720
 596,54;24054,293;   -4,970;30873,852; 0,10838
 597,12;24253,895;   -5,110;31175,736; 0,10901
 597,69;24354,545;   -3,310;31338,148; 0,10948
 598,27;24617,305;   -5,390;31712,092; 0,10996
 598,85;24745,301;   -4,950;31937,922; 0,11079
 599,43;24756,760;   -5,110;31989,500; 0,11129
 600,00;24811,449;   -5,990;32126,084; 0,11218
 600,58;24794,521;   -4,300;32180,908; 0,11323
 601,16;24808,869;   -4,710;32195,244; 0,11317
 601,73;24872,994;   -5,640;32236,727; 0,11260
 602,31;24912,400;   -4,300;32360,947; 0,11359
 602,89;25026,342;   -6,590;32560,871; 0,11427
 603,46;24998,512;   -4,360;32703,152; 0,11666
 604,04;25003,666;   -5,150;32845,133; 0,11845
 604,62;25056,252;   -5,600;32927,160; 0,11861
 605,19;25179,813;   -4,150;33099,266; 0,11875
 605,77;25311,777;   -5,760;33164,250; 0,11732
 606,35;25259,693;   -4,850;33150,660; 0,11804
 606,92;25291,627;   -3,990;33220,434; 0,11841
 607,50;25281,936;   -6,550;33157,086; 0,11774
 608,08;25299,559;   -4,260;33184,164; 0,11780
 608,65;25345,037;   -5,240;33285,961; 0,11835
 609,23;25366,760;   -4,850;33354,836; 0,11887
 609,81;25434,283;   -4,060;33459,629; 0,11908
 610,38;25405,902;   -5,910;33419,234; 0,11904
 610,96;25437,258;   -4,150;33473,617; 0,11922
 611,54;25380,264;   -5,630;33526,098; 0,12086
 612,11;25321,086;   -5,630;33578,258; 0,12255
 612,69;25281,004;   -4,200;33678,074; 0,12453
 613,26;25224,072;   -5,950;33790,145; 0,12695
 613,84;25206,682;   -3,890;33749,133; 0,12673
 614,42;25266,186;   -4,870;33748,535; 0,12569
 614,99;25274,854;   -5,940;33759,488; 0,12568
 615,57;25252,307;   -4,720;33678,309; 0,12503
 616,14;25232,914;   -5,560;33720,414; 0,12590
 616,72;25180,006;   -4,440;33717,316; 0,12678
 617,30;25215,627;   -4,290;33713,566; 0,12612
 617,87;25215,734;   -6,250;33726,121; 0,12627
 618,45;25066,791;   -4,460;33630,449; 0,12761
 619,02;25054,910;   -5,730;33662,223; 0,12822
 619,60;25117,730;   -4,980;33846,770; 0,12951
 620,17;25050,879;   -3,950;33784,738; 0,12988
 620,75;24992,617;   -6,600;33645,953; 0,12909
 621,33;25023,391;   -3,960;33804,094; 0,13061
 621,90;25049,945;   -4,720;33869,941; 0,13099
 622,48;25068,439;   -6,510;33913,844; 0,13122
 623,05;25141,262;   -4,060;34100,281; 0,13235
 623,63;25141,123;   -6,170;34138,680; 0,13283
 624,20;25311,133;   -4,310;34360,914; 0,13273
 624,78;25388,141;   -4,040;34469,391; 0,13278
 625,35;25472,723;   -5,620;34523,895; 0,13202
 625,93;25587,078;   -4,100;34620,688; 0,13130
 626,50;25638,125;   -5,220;34859,051; 0,13341
 627,08;25712,516;   -4,380;35085,145; 0,13496
 627,66;25760,438;   -4,340;35115,031; 0,13452
 628,23;25847,500;   -5,570;35320,547; 0,13558
 628,81;26037,373;   -4,180;35584,832; 0,13565
 629,38;26203,943;   -4,870;35830,012; 0,13586
 629,96;26357,158;   -5,120;36103,207; 0,13662
 630,53;26518,604;   -3,840;36312,395; 0,13649
 631,11;26819,135;   -5,790;36585,129; 0,13483
 631,68;27015,014;   -3,830;36883,961; 0,13522
 632,26;27112,443;   -4,770;36984,973; 0,13484
 632,83;27342,510;   -6,570;37168,785; 0,13331
 633,40;27503,084;   -3,370;37429,043; 0,13381
 633,98;27614,855;   -5,940;37579,770; 0,13379
 634,55;27748,523;   -4,070;37613,477; 0,13209
 635,13;27840,578;   -4,150;37790,781; 0,13269
 635,70;27864,002;   -6,570;38036,090; 0,13512
 636,28;27966,842;   -4,370;38166,969; 0,13503
 636,85;28009,424;   -5,250;38399,809; 0,13700
 637,43;28043,105;   -5,520;38569,984; 0,13840
 638,00;28187,105;   -3,680;38656,527; 0,13716
 638,58;28318,861;   -5,860;38825,258; 0,13701
 639,15;28373,311;   -3,990;39006,434; 0,13821
 639,73;28496,840;   -4,400;39074,633; 0,13708
 640,30;28514,414;   -4,680;39151,938; 0,13767
 640,87;28482,164;   -3,870;39184,527; 0,13853
 641,45;28539,943;   -6,500;39080,559; 0,13648
 642,02;28642,494;   -4,100;39083,559; 0,13497
 642,60;28639,322;   -4,230;39152,445; 0,13578
 643,17;28697,803;   -5,420;39186,805; 0,13527
 643,74;28826,283;   -3,180;39306,273; 0,13466
 644,32;28877,303;   -5,540;39459,453; 0,13557
 644,89;28982,822;   -5,240;39502,215; 0,13446
 645,47;29070,480;   -4,360;39552,703; 0,13371
 646,04;29072,332;   -5,990;39672,434; 0,13499
 646,61;29110,281;   -3,860;39626,254; 0,13392
 647,19;29130,230;   -4,310;39608,230; 0,13342
 647,76;29129,641;   -5,380;39691,980; 0,13435
 648,34;29139,539;   -3,530;39664,840; 0,13391
 648,91;29296,889;   -6,390;39640,609; 0,13129
 649,48;29423,939;   -4,280;39710,809; 0,13019
 650,06;29482,459;   -4,200;39781,098; 0,13010
 650,63;29601,789;   -5,220;39836,277; 0,12894
 651,20;29733,188;   -4,210;40084,777; 0,12972
 651,78;29822,018;   -5,490;40316,586; 0,13093
 652,35;30062,287;   -4,820;40521,926; 0,12965
 652,92;30314,648;   -4,330;40847,156; 0,12949
 653,50;30479,957;   -5,820;41184,824; 0,13070
 654,07;30703,127;   -4,120;41398,824; 0,12979
 654,64;31306,037;   -6,010;42226,535; 0,12994
 655,22;34909,207;   -4,660;47813,324; 0,13659
 655,79;41949,938;   -3,620;56212,684; 0,12709
 656,36;35487,805;   -5,570;46836,262; 0,12049
 656,94;32467,785;   -4,150;43261,270; 0,12463
 657,51;32133,615;   -4,990;42910,629; 0,12559
 658,08;32374,924;   -5,890;42962,980; 0,12287
 658,66;32575,725;   -4,180;43155,680; 0,12213
 659,23;32715,625;   -5,280;43288,418; 0,12160
 659,80;32881,684;   -4,960;43250,828; 0,11902
 660,38;33077,805;   -4,230;43329,559; 0,11723
 660,95;33082,613;   -5,930;43564,957; 0,11952
 661,52;33080,543;   -4,040;43590,477; 0,11981
 662,09;33207,184;   -5,350;43649,457; 0,11873
 662,67;33296,844;   -4,180;43821,016; 0,11927
 663,24;33419,023;   -4,690;43888,684; 0,11834
 663,81;33572,742;   -5,900;43813,023; 0,11560
 664,39;33645,633;   -4,940;43890,461; 0,11543
 664,96;33584,633;   -4,600;43957,852; 0,11688
 665,53;33663,699;   -5,790;43903,441; 0,11532
 666,10;33828,539;   -4,420;43882,570; 0,11300
 666,68;33919,430;   -5,650;43913,750; 0,11214
 667,25;34057,648;   -3,600;43841,281; 0,10966
 667,82;34230,410;   -4,900;43812,020; 0,10717
 668,39;34254,020;   -5,390;43960,840; 0,10834
 668,96;34189,570;   -4,030;44025,977; 0,10980
 669,54;34282,910;   -6,050;43938,379; 0,10775
 670,11;34378,969;   -5,210;43908,816; 0,10624
 670,68;34341,520;   -4,180;43934,105; 0,10697
 671,25;34474,199;   -6,130;43886,285; 0,10482
 671,83;34744,117;   -4,330;43901,594; 0,10159
 672,40;34891,758;   -5,120;44041,113; 0,10112
 672,97;34926,457;   -4,860;44033,203; 0,10061
 673,54;35153,195;   -3,840;44056,711; 0,09804
 674,11;35278,168;   -5,530;44215,301; 0,09805
 674,69;35261,797;   -4,290;44391,453; 0,09998
 675,26;35414,555;   -5,340;44425,211; 0,09843
 675,83;35602,375;   -5,560;44331,398; 0,09522
 676,40;35651,637;   -3,900;44484,891; 0,09612
 676,97;35723,156;   -5,680;44466,117; 0,09507
 677,54;35976,484;   -4,570;44419,547; 0,09154
 678,12;36203,574;   -4,050;44533,148; 0,08992
 678,69;36249,203;   -5,770;44558,098; 0,08962
 679,26;36428,164;   -4,090;44447,195; 0,08640
 679,83;36653,055;   -5,640;44546,547; 0,08469
 680,40;36690,215;   -4,970;44760,824; 0,08634
 680,97;36730,383;   -3,770;44837,453; 0,08661
 681,55;36888,012;   -6,160;44769,504; 0,08408
 682,12;36990,883;   -3,880;44911,723; 0,08426
 682,69;37019,723;   -5,050;45099,484; 0,08573
 683,26;37272,211;   -5,640;45111,473; 0,08289
 683,83;37530,340;   -4,680;45176,211; 0,08052
 684,40;37641,199;   -6,160;45480,672; 0,08215
 684,97;37738,582;   -4,550;45540,070; 0,08160
 685,54;38058,180;   -4,810;45450,879; 0,07709
 686,12;38287,520;   -5,100;45523,258; 0,07517
 686,69;38355,609;   -4,580;45682,129; 0,07591
 687,26;38650,668;   -5,290;45765,367; 0,07337
 687,83;38990,969;   -4,510;45894,699; 0,07079
 688,40;39153,219;   -4,300;46287,637; 0,07269
 688,97;39218,438;   -6,200;46487,965; 0,07384
 689,54;39567,039;   -4,240;46448,277; 0,06963
 690,11;39847,840;   -5,040;46520,203; 0,06723
 690,68;39941,977;   -5,220;46794,516; 0,06876
 691,25;40100,996;   -3,450;46851,703; 0,06756
 691,82;40419,766;   -5,320;46733,691; 0,06303
 692,40;40645,586;   -4,730;47005,051; 0,06312
 692,97;40641,125;   -4,630;47201,703; 0,06499
 693,54;40757,098;   -5,290;47050,500; 0,06235
 694,11;40947,438;   -4,550;46891,750; 0,05886
 694,68;40934,254;   -5,420;46963,738; 0,05967
 695,25;40854,984;   -4,190;46914,809; 0,06006
 695,82;40979,273;   -4,430;46775,258; 0,05745
 696,39;41061,035;   -6,150;46747,270; 0,05632
 696,96;40991,504;   -4,350;46951,676; 0,05895
 697,53;40832,145;   -5,420;46814,797; 0,05937
 698,10;40909,254;   -4,290;46647,438; 0,05700
 698,67;40989,313;   -4,140;46753,895; 0,05714
 699,24;40921,082;   -5,950;46852,555; 0,05878
 699,81;41070,242;   -4,360;46623,223; 0,05507
 700,38;41314,574;   -4,650;46440,543; 0,05079
 700,95;41331,164;   -5,150;46450,844; 0,05071
 701,52;41177,203;   -4,050;46426,313; 0,05210
 702,09;41250,480;   -5,740;46168,152; 0,04891
 702,66;41273,461;   -4,020;46009,211; 0,04717
 703,23;41118,441;   -4,780;45999,590; 0,04871
 703,80;41092,391;   -5,590;45907,691; 0,04812
 704,37;41342,969;   -4,410;45708,918; 0,04359
 704,94;41512,461;   -4,930;45698,988; 0,04172
 705,51;41512,168;   -4,190;45905,098; 0,04368
 706,08;41637,980;   -3,930;45836,789; 0,04172
 706,65;41874,180;   -5,850;45611,945; 0,03713
 707,22;41884,527;   -4,510;45584,406; 0,03676
 707,79;41751,148;   -4,830;45660,547; 0,03887
 708,36;41667,629;   -4,570;45504,746; 0,03825
 708,93;41751,137;   -4,340;45274,883; 0,03519
 709,50;41675,227;   -5,570;45299,125; 0,03621
 710,06;41570,406;   -4,110;45407,484; 0,03834
 710,63;41605,789;   -4,020;45198,102; 0,03596
 711,20;41716,125;   -5,850;44921,992; 0,03215
 711,77;41658,066;   -3,570;44926,500; 0,03280
 712,34;41513,457;   -5,610;44986,941; 0,03489
 712,91;41622,066;   -4,400;44911,281; 0,03303
 713,48;41818,496;   -4,200;44910,109; 0,03097
 714,05;41711,137;   -5,980;45102,328; 0,03394
 714,62;41526,477;   -4,620;45085,508; 0,03571
 715,19;41558,293;   -5,130;44782,238; 0,03244
 715,76;41643,973;   -4,790;44596,875; 0,02975
 716,33;41575,883;   -4,340;44701,617; 0,03148
 716,89;41523,016;   -5,890;44753,336; 0,03253
 717,46;41776,453;   -4,240;44585,035; 0,02825
 718,03;42023,563;   -5,030;44520,375; 0,02506
 718,60;41941,465;   -4,910;44693,734; 0,02760
 719,17;41890,473;   -4,310;44775,863; 0,02893
 719,74;42057,051;   -5,810;44634,102; 0,02582
 720,31;42230,953;   -4,990;44611,461; 0,02381
 720,88;42102,750;   -4,640;44770,992; 0,02668
 721,44;41945,953;   -5,380;44782,961; 0,02842
 722,01;42149,391;   -4,640;44656,168; 0,02509
 722,58;42334,473;   -5,800;44688,008; 0,02349
 723,15;42243,602;   -4,880;44932,078; 0,02679
 723,72;42111,492;   -4,530;44924,457; 0,02808
 724,29;42241,680;   -5,990;44656,809; 0,02414
 724,85;42341,590;   -4,290;44618,418; 0,02274
 725,42;42262,781;   -4,660;44768,586; 0,02501
 725,99;42209,648;   -4,740;44888,344; 0,02672
 726,56;42447,617;   -4,060;44773,324; 0,02316
 727,13;42708,250;   -5,900;44728,145; 0,02007
 727,69;42728,117;   -4,420;44921,324; 0,02174
 728,26;42683,707;   -5,030;44960,863; 0,02257
 728,83;42745,797;   -5,820;44756,723; 0,01996
 729,40;42783,176;   -4,030;44593,773; 0,01800
 729,97;42702,855;   -5,730;44758,859; 0,02042
 730,53;42560,438;   -4,250;44798,461; 0,02225
 731,10;42637,988;   -3,790;44595,320; 0,01949
 731,67;42734,836;   -5,590;44531,309; 0,01788
 732,24;42673,504;   -4,300;44780,820; 0,02093
 732,81;42639,047;   -5,780;45016,137; 0,02356
 733,37;42936,836;   -4,930;45010,629; 0,02048
 733,94;43380,555;   -4,330;45043,945; 0,01634
 734,51;43392,094;   -5,420;45113,848; 0,01690
 735,08;43206,285;   -4,400;45187,977; 0,01947
 735,64;43307,426;   -4,910;45036,566; 0,01700
 736,21;43530,766;   -5,070;44870,313; 0,01316
 736,78;43540,293;   -4,880;44973,355; 0,01406
 737,35;43380,254;   -6,390;45219,055; 0,01803
 737,91;43323,434;   -4,080;45155,664; 0,01799
 738,48;43436,051;   -4,490;45033,762; 0,01569
 739,05;43435,203;   -5,350;45020,051; 0,01556
 739,61;43101,813;   -4,600;44980,719; 0,01853
 740,18;42812,602;   -5,600;44708,059; 0,01881
 740,75;42808,070;   -4,620;44432,090; 0,01617
 741,32;42729,371;   -4,280;44328,719; 0,01596
 741,88;42550,570;   -5,640;44408,680; 0,01856
 742,45;42523,230;   -3,900;44379,148; 0,01855
 743,02;42696,289;   -5,070;44134,105; 0,01438
 743,58;42773,059;   -5,630;43977,766; 0,01206
 744,15;42663,531;   -4,240;44108,547; 0,01446
 744,72;42485,059;   -6,180;44114,516; 0,01634
 745,28;42556,848;   -4,350;43939,516; 0,01388
 745,85;42704,438;   -4,910;43754,672; 0,01055
 746,42;42666,438;   -5,690;43875,164; 0,01213
 746,98;42537,770;   -3,840;43989,902; 0,01458
 747,55;42645,926;   -5,850;43852,242; 0,01211
 748,12;42893,398;   -4,270;43608,371; 0,00718
 748,68;42984,648;   -4,650;43644,801; 0,00662
 749,25;42879,465;   -5,470;43821,398; 0,00944
 749,82;42908,246;   -3,920;43793,238; 0,00887
 750,38;43075,035;   -5,780;43617,641; 0,00544
 750,95;43111,875;   -4,420;43542,969; 0,00432
 751,52;42933,855;   -4,020;43727,766; 0,00796
 752,08;42853,586;   -5,020;43775,969; 0,00925
 752,65;43037,395;   -3,530;43643,355; 0,00607
 753,21;43284,926;   -4,580;43571,484; 0,00287
 753,78;43311,074;   -4,810;43680,336; 0,00369
 754,35;43084,094;   -4,370;43714,695; 0,00631
 754,91;43031,715;   -5,860;43531,992; 0,00502
 755,48;43122,215;   -4,500;43269,844; 0,00148
 756,04;43121,793;   -4,000;43164,844; 0,00043
 756,61;42987,184;   -4,650;43272,242; 0,00287
 757,18;42971,652;   -4,160;43257,531; 0,00288
 757,74;43103,684;   -5,890;43008,641;-0,00096
 758,31;43034,523;   -4,660;42833,559;-0,00203
 758,87;42855,660;   -4,110;43051,840; 0,00198
 759,44;42692,691;   -5,480;43300,828; 0,00614
 760,00;42701,180;   -3,650;43224,090; 0,00529
 760,57;42853,621;   -4,820;43135,617; 0,00285
 761,14;42663,680;   -4,810;43084,277; 0,00426
 761,70;42313,840;   -4,590;43139,727; 0,00839
 762,27;42225,711;   -5,140;43069,125; 0,00859
 762,83;42436,699;   -4,410;42867,105; 0,00438
 763,40;42586,348;   -4,860;42876,336; 0,00295
 763,96;42505,738;   -4,710;43092,594; 0,00595
 764,53;42460,070;   -3,960;43247,293; 0,00798
 765,09;42365,918;   -4,860;42971,063; 0,00616
 765,66;42349,680;   -4,550;42641,211; 0,00298
 766,22;42308,797;   -4,170;42718,590; 0,00419
 766,79;42124,188;   -5,530;42920,512; 0,00813
 767,35;42166,469;   -4,060;43019,488; 0,00870
 767,92;42443,586;   -5,110;42938,711; 0,00504
 768,48;42724,727;   -4,960;43035,750; 0,00315
 769,05;42699,734;   -4,410;43189,520; 0,00495
 769,61;42580,266;   -5,630;43249,059; 0,00677
 770,18;42655,066;   -4,520;43151,426; 0,00502
 770,74;42793,934;   -4,340;43040,527; 0,00250
 771,31;42757,035;   -5,180;43067,074; 0,00314
 771,87;42456,406;   -4,460;43130,035; 0,00684
 772,44;42413,863;   -5,900;43146,305; 0,00743
 773,00;42599,484;   -4,520;42954,523; 0,00360
 773,57;42920,473;   -4,550;42919,402;-0,00001
 774,13;43001,504;   -5,560;43132,664; 0,00132
 774,70;43067,563;   -3,740;43480,652; 0,00415
 775,26;43239,902;   -5,570;43532,820; 0,00293
 775,82;43550,602;   -4,340;43474,180;-0,00076
 776,39;43710,102;   -4,110;43549,422;-0,00160
 776,95;43506,973;   -5,150;43779,379; 0,00271
 777,52;43352,711;   -4,150;43901,398; 0,00546
 778,08;43395,000;   -4,380;43836,879; 0,00440
 778,65;43520,012;   -4,830;43747,176; 0,00226
 779,21;43395,480;   -4,940;43733,059; 0,00336
 779,77;43049,359;   -5,360;43752,418; 0,00703
 780,34;42940,520;   -4,700;43678,484; 0,00740
 780,90;43186,699;   -4,380;43592,105; 0,00406
 781,47;43342,219;   -6,070;43546,316; 0,00204
 782,03;43238,738;   -3,450;43754,684; 0,00515
 782,59;43067,109;   -4,970;43978,102; 0,00909
 783,16;43113,129;   -4,210;44033,242; 0,00917
 783,72;43235,297;   -4,440;43914,473; 0,00677
 784,29;43242,359;   -5,050;43815,883; 0,00572
 784,85;43077,586;   -4,310;43826,129; 0,00748
 785,41;42928,379;   -5,480;43780,441; 0,00853
 785,98;42942,066;   -4,460;43422,410; 0,00483
 786,54;43115,277;   -3,350;43050,258;-0,00066
 787,10;43078,637;   -5,650;42904,738;-0,00176
 787,67;42875,215;   -3,740;43003,938; 0,00130
 788,23;42642,938;   -4,180;42988,676; 0,00351
 788,79;42656,766;   -4,760;42809,746; 0,00155
 789,36;42685,195;   -3,860;42592,086;-0,00095
 789,92;42679,184;   -5,930;42697,984; 0,00019
 790,48;42457,434;   -4,000;42887,863; 0,00438
 791,05;42350,516;   -4,690;42970,016; 0,00631
 791,61;42381,324;   -5,550;42778,563; 0,00405
 792,17;42472,863;   -4,670;42688,313; 0,00220
 792,74;42317,074;   -4,930;42685,344; 0,00376
 793,30;42069,652;   -4,550;42741,652; 0,00688
 793,86;41922,344;   -4,750;42549,820; 0,00645
 794,43;41863,484;   -5,750;42108,352; 0,00253
 794,99;41791,141;   -3,970;41816,480; 0,00026
 795,55;41502,023;   -5,170;41748,730; 0,00257
 796,11;41152,773;   -4,850;41787,078; 0,00664
 796,68;41047,820;   -3,920;41757,438; 0,00744
 797,24;41082,391;   -5,510;41567,977; 0,00510
 797,80;40998,922;   -3,660;41408,316; 0,00431
 798,36;40727,910;   -5,030;41373,914; 0,00683
 798,93;40441,789;   -5,030;41386,785; 0,01003
 799,49;40382,680;   -4,410;41233,816; 0,00906
 800,05;40483,070;   -5,200;40967,043; 0,00516
 800,61;40440,859;   -4,730;40795,965; 0,00380
 801,18;40247,730;   -3,810;40801,121; 0,00593
 801,74;39905,270;   -4,800;40736,980; 0,00896
 802,30;39739,828;   -3,250;40506,191; 0,00829
 802,86;39805,887;   -4,880;40151,000; 0,00375
 803,43;39815,277;   -4,670;39917,582; 0,00111
 803,99;39695,496;   -3,660;39878,941; 0,00200
 804,55;39559,816;   -5,800;39891,219; 0,00362
 805,11;39480,176;   -4,200;39689,000; 0,00229
 805,68;39560,996;   -4,770;39396,309;-0,00181
 806,24;39523,488;   -5,180;39209,578;-0,00346
 806,80;39229,555;   -3,540;39183,098;-0,00051
 807,36;38942,254;   -5,300;39288,406; 0,00384
 807,92;38850,176;   -3,720;39260,605; 0,00456
 808,48;38889,984;   -4,840;39107,234; 0,00242
 809,05;38866,387;   -5,220;39018,664; 0,00170
 809,61;38765,977;   -4,430;39107,113; 0,00380
 810,17;38564,336;   -4,740;39234,063; 0,00748
 810,73;38507,535;   -4,960;39195,570; 0,00769
 811,29;38609,023;   -3,780;39030,641; 0,00472
 811,85;38654,535;   -6,000;38846,512; 0,00215
 812,42;38511,414;   -4,540;38865,512; 0,00397
 812,98;38303,172;   -5,330;38977,961; 0,00758
 813,54;38190,824;   -4,720;38961,059; 0,00867
 814,10;38162,422;   -4,060;38607,578; 0,00504
 814,66;38218,273;   -5,660;38285,156; 0,00076
 815,22;38154,570;   -4,660;38106,566;-0,00055
 815,78;38132,723;   -4,540;38169,316; 0,00042
 816,35;38154,531;   -4,930;38224,016; 0,00079
 816,91;38284,289;   -3,780;38150,656;-0,00152
 817,47;38298,152;   -5,080;37956,656;-0,00389
 818,03;38254,398;   -4,650;37995,605;-0,00295
 818,59;38080,078;   -4,300;38138,715; 0,00067
 819,15;38081,141;   -5,250;38306,734; 0,00256
 819,71;38175,270;   -3,600;38274,773; 0,00113
 820,27;38422,168;   -5,020;38224,891;-0,00224
 820,83;38564,688;   -4,680;38347,723;-0,00245
 821,39;38405,527;   -3,680;38474,922; 0,00078
 821,96;38350,188;   -5,390;38640,898; 0,00328
 822,52;38527,188;   -4,030;38713,438; 0,00209
 823,08;38750,488;   -4,860;38651,227;-0,00111
 823,64;38925,727;   -5,060;38749,656;-0,00197
 824,20;38928,008;   -4,200;38923,387;-0,00005
 824,76;39031,996;   -5,780;39229,766; 0,00219
 825,32;39199,926;   -4,450;39467,445; 0,00295
 825,88;39417,715;   -4,040;39384,035;-0,00037
 826,44;39513,395;   -5,220;39278,074;-0,00259
 827,00;39551,844;   -4,320;39389,234;-0,00179
 827,56;39363,145;   -5,520;39548,945; 0,00204
 828,12;39256,633;   -4,540;39686,582; 0,00473
 828,68;39368,664;   -4,400;39663,941; 0,00324
 829,24;39544,094;   -5,330;39617,910; 0,00081
 829,80;39555,383;   -4,120;39720,539; 0,00181
 830,36;39306,543;   -4,620;39912,660; 0,00665
 830,92;39119,223;   -4,990;40081,320; 0,01055
 831,48;39224,715;   -4,050;40070,328; 0,00926
 832,04;39373,344;   -4,900;39870,527; 0,00545
 832,60;39417,402;   -3,970;39690,188; 0,00299
 833,16;39291,633;   -4,740;39708,246; 0,00458
 833,72;39024,742;   -4,780;39721,707; 0,00769
 834,28;39073,582;   -4,320;39707,277; 0,00699
 834,84;39219,332;   -5,550;39449,066; 0,00254
 835,40;39337,172;   -4,230;39225,746;-0,00123
 835,96;39363,582;   -4,040;39271,973;-0,00101
 836,52;39192,090;   -4,780;39429,785; 0,00263
 837,08;39096,719;   -4,010;39423,871; 0,00362
 837,64;39129,000;   -4,700;39258,332; 0,00143
 838,20;39188,219;   -4,360;39008,582;-0,00200
 838,76;39259,930;   -4,520;38867,012;-0,00437
 839,32;39064,957;   -5,920;38930,621;-0,00150
 839,88;38773,488;   -3,720;39094,730; 0,00358
 840,43;38575,199;   -4,530;39116,480; 0,00605
 840,99;38619,836;   -4,270;39076,039; 0,00510
 841,55;38714,297;   -3,390;38930,887; 0,00242
 842,11;38720,637;   -5,590;38981,086; 0,00291
 842,67;38600,996;   -4,340;39091,066; 0,00548
 843,23;38493,035;   -4,600;39027,117; 0,00598
 843,79;38576,367;   -5,320;38792,895; 0,00243
 844,35;38797,797;   -3,660;38551,383;-0,00277
 844,91;38841,266;   -5,490;38348,883;-0,00554
 845,47;38716,695;   -4,670;38280,555;-0,00492
 846,03;38472,137;   -3,620;38267,805;-0,00231
 846,58;38372,145;   -5,330;38180,852;-0,00217
 847,14;38466,723;   -4,360;38056,602;-0,00465
 847,70;38496,004;   -5,100;37903,430;-0,00674
 848,26;38279,973;   -4,510;37788,559;-0,00561
 848,82;37993,875;   -4,580;37885,301;-0,00124
 849,38;37713,563;   -5,620;37883,148; 0,00195
 849,94;37635,941;   -4,100;37756,637; 0,00139
 850,49;37669,492;   -4,500;37578,707;-0,00105
 851,05;37658,633;   -4,960;37537,066;-0,00140
 851,61;37516,563;   -4,350;37672,648; 0,00180
 852,17;37346,391;   -5,580;37858,066; 0,00591
 852,73;37266,641;   -4,530;37982,797; 0,00827
 853,29;37306,109;   -3,860;37843,137; 0,00621
 853,84;37302,609;   -5,630;37515,586; 0,00247
 854,40;37377,621;   -4,110;37405,395; 0,00032
 854,96;37202,699;   -5,260;37315,902; 0,00132
 855,52;37031,238;   -4,500;37316,402; 0,00333
 856,08;36927,668;   -4,570;37216,492; 0,00338
 856,63;36934,879;   -6,080;36964,410; 0,00035
 857,19;36899,828;   -4,570;36703,082;-0,00232
 857,75;36843,129;   -5,340;36666,941;-0,00208
 858,31;36641,160;   -5,220;36707,789; 0,00079
 858,86;36520,137;   -3,950;36879,777; 0,00426
 859,42;36512,590;   -4,950;36909,738; 0,00470
 859,98;36603,246;   -4,320;36842,648; 0,00283
 860,54;36624,789;   -4,540;36659,527; 0,00041
 861,10;36537,496;   -5,190;36584,188; 0,00055
 861,65;36498,926;   -4,120;36694,656; 0,00232
 862,21;36402,156;   -5,220;36660,086; 0,00307
 862,77;36433,746;   -4,290;36490,355; 0,00067
 863,32;36597,766;   -4,010;36334,434;-0,00314
 863,88;36647,965;   -4,960;36207,242;-0,00525
 864,44;36578,094;   -4,350;36195,191;-0,00457
 865,00;36508,676;   -4,890;36338,383;-0,00203
 865,55;36536,703;   -4,530;36454,859;-0,00097
 866,11;36748,375;   -4,170;36525,090;-0,00265
 866,67;36989,234;   -5,100;36497,379;-0,00581
 867,23;37097,492;   -4,070;36520,129;-0,00681
 867,78;37175,414;   -4,120;36745,898;-0,00505
 868,34;37020,941;   -4,920;36975,590;-0,00053
 868,90;37019,492;   -4,560;37163,855; 0,00169
 869,45;37196,063;   -5,330;37254,168; 0,00068
 870,01;37411,113;   -4,260;37184,188;-0,00264
 870,57;37751,891;   -4,680;37402,746;-0,00403
 871,12;37876,063;   -5,410;37642,445;-0,00269
 871,68;37790,859;   -3,800;37792,324; 0,00002
 872,24;37776,539;   -5,060;37797,984; 0,00025
 872,79;37953,520;   -5,420;37734,371;-0,00251
 873,35;38065,102;   -3,690;37482,363;-0,00670
 873,91;38031,582;   -5,580;37297,863;-0,00846
 874,46;37787,168;   -4,440;37222,730;-0,00654
 875,02;37429,070;   -5,110;37153,211;-0,00321
 875,57;37242,211;   -5,400;37063,281;-0,00209
 876,13;37088,801;   -4,270;36803,148;-0,00336
 876,69;37057,867;   -5,490;36535,637;-0,00616
 877,24;36765,008;   -3,930;36158,168;-0,00723
 877,80;36455,578;   -4,640;36014,527;-0,00529
 878,36;36087,117;   -5,170;35959,996;-0,00153
 878,91;35850,129;   -4,460;35862,516; 0,00015
 879,47;35687,816;   -4,690;35600,934;-0,00106
 880,02;35618,168;   -4,900;35271,266;-0,00425
 880,58;35385,516;   -4,280;34976,945;-0,00504
 881,14;35099,207;   -5,440;34835,012;-0,00328
 881,69;34735,887;   -3,970;34780,094; 0,00055
 882,25;34455,355;   -4,390;34664,441; 0,00263
 882,80;34343,566;   -4,610;34477,441; 0,00169
 883,36;34390,324;   -3,790;34282,492;-0,00136
 883,91;34375,086;   -5,750;34118,742;-0,00325
 884,47;34236,543;   -4,030;34084,180;-0,00194
 885,03;34019,742;   -4,410;34102,770; 0,00106
 885,58;33945,922;   -5,340;34129,238; 0,00234
 886,14;33920,043;   -4,480;34001,578; 0,00104
 886,69;33924,555;   -5,200;33810,406;-0,00146
 887,25;33837,574;   -3,760;33608,816;-0,00295
 887,80;33668,793;   -5,290;33492,945;-0,00227
 888,36;33479,563;   -5,510;33571,457; 0,00119
 888,91;33165,172;   -4,120;33467,977; 0,00395
 889,47;33078,840;   -5,000;33339,934; 0,00341
 890,02;33105,871;   -4,090;33163,242; 0,00075
 890,58;33125,180;   -4,300;33032,832;-0,00121
 891,13;32963,223;   -5,170;32901,523;-0,00081
 891,69;32771,609;   -4,250;32918,184; 0,00194
 892,24;32501,400;   -4,310;32904,180; 0,00535
 892,80;32496,449;   -5,000;32888,629; 0,00521
 893,35;32591,949;   -4,080;32761,551; 0,00225
 893,91;32662,289;   -5,720;32620,330;-0,00056
 894,46;32661,010;   -4,570;32561,859;-0,00132
 895,02;32501,078;   -4,130;32582,219; 0,00108
 895,57;32310,219;   -5,660;32614,008; 0,00406
 896,13;32232,309;   -4,610;32597,178; 0,00489
 896,68;32219,648;   -4,620;32444,516; 0,00302
 897,23;32136,238;   -4,980;32142,375; 0,00008
 897,79;32085,447;   -4,610;31984,695;-0,00137
 898,34;31825,047;   -5,650;31850,754; 0,00035
 898,90;31612,207;   -4,320;31925,283; 0,00428
 899,45;31455,176;   -5,500;31927,053; 0,00647
 900,01;31380,346;   -4,140;31785,332; 0,00557
 900,56;31376,035;   -3,550;31589,631; 0,00295
 901,11;31316,516;   -5,510;31348,570; 0,00044
 901,67;31165,135;   -4,410;31196,861; 0,00044
 902,22;31038,424;   -4,190;31177,561; 0,00194
 902,78;30824,914;   -4,830;31050,309; 0,00316
 903,33;30696,885;   -4,190;30847,609; 0,00213
 903,89;30730,215;   -5,500;30634,168;-0,00136
 904,44;30783,184;   -4,230;30420,217;-0,00515
 904,99;30697,684;   -4,000;30226,736;-0,00671
 905,55;30473,014;   -5,930;30092,195;-0,00546
 906,10;30300,693;   -4,430;30087,746;-0,00306
 906,65;30174,732;   -4,730;30120,855;-0,00078
 907,21;30169,803;   -5,170;30012,854;-0,00226
 907,76;30172,352;   -4,810;29810,984;-0,00523
 908,31;30165,141;   -5,540;29719,293;-0,00647
 908,87;29965,480;   -4,220;29663,463;-0,00440
 909,42;29743,980;   -3,690;29647,473;-0,00141
 909,97;29486,230;   -5,040;29572,311; 0,00127
 910,53;29395,010;   -4,190;29495,490; 0,00148
 911,08;29338,221;   -5,690;29214,279;-0,00184
 911,63;29292,779;   -3,770;28955,109;-0,00503
 912,19;29109,939;   -4,290;28735,680;-0,00562
 912,74;28919,520;   -5,150;28699,830;-0,00331
 913,29;28699,449;   -4,660;28721,289; 0,00033
 913,85;28515,471;   -5,020;28645,160; 0,00197
 914,40;28475,461;   -4,070;28581,270; 0,00161
 914,95;28365,529;   -4,650;28348,830;-0,00026
 915,51;28261,420;   -5,670;28200,381;-0,00094
 916,06;28067,109;   -4,280;28092,461; 0,00039
 916,61;27901,619;   -4,750;28121,199; 0,00340
 917,16;27748,320;   -4,520;28081,961; 0,00519
 917,72;27726,961;   -3,970;28049,000; 0,00501
 918,27;27709,160;   -5,550;27891,930; 0,00285
 918,82;27616,971;   -3,980;27662,609; 0,00072
 919,37;27495,289;   -4,650;27501,740; 0,00010
 919,93;27316,381;   -5,010;27419,330; 0,00163
 920,48;27044,289;   -3,750;27270,820; 0,00362
 921,03;26866,070;   -5,520;27171,270; 0,00490
 921,58;26725,529;   -3,900;26943,900; 0,00353
 922,14;26585,320;   -4,050;26615,811; 0,00050
 922,69;26471,410;   -5,640;26354,180;-0,00193
 923,24;26281,289;   -4,400;26127,160;-0,00255
 923,79;26011,490;   -4,740;25985,500;-0,00043
 924,35;25732,859;   -3,920;25857,740; 0,00210
 924,90;25617,430;   -4,090;25741,939; 0,00211
 925,45;25462,150;   -5,270;25454,740;-0,00013
 926,00;25449,680;   -3,280;25201,510;-0,00426
 926,55;25428,850;   -4,530;24949,189;-0,00827
 927,11;25309,930;   -5,800;24842,939;-0,00809
 927,66;25096,250;   -4,160;24811,561;-0,00495
 928,21;24822,590;   -5,290;24734,730;-0,00154
 928,76;24672,199;   -4,040;24691,910; 0,00035
 929,31;24588,590;   -4,140;24489,131;-0,00176
 929,86;24464,811;   -5,200;24238,141;-0,00404
 930,42;24331,301;   -3,790;24020,039;-0,00559
 930,97;24062,711;   -5,790;23847,570;-0,00390
 931,52;23801,850;   -4,480;23746,510;-0,00101
 932,07;23547,410;   -3,170;23652,949; 0,00194
 932,62;23423,770;   -5,580;23530,000; 0,00196
 933,17;23335,039;   -4,110;23323,000;-0,00022
 933,72;23279,689;   -4,590;23095,580;-0,00345
 934,28;23174,090;   -4,300;22848,529;-0,00614
 934,83;23011,000;   -3,710;22753,260;-0,00489
 935,38;22780,801;   -6,010;22663,721;-0,00224
 935,93;22578,330;   -4,180;22594,131; 0,00030
 936,48;22460,061;   -4,720;22472,600; 0,00024
 937,03;22362,920;   -5,110;22235,080;-0,00249
 937,58;22314,051;   -4,100;22003,100;-0,00609
 938,13;22200,711;   -5,240;21832,520;-0,00726
 938,68;22012,340;   -3,990;21712,061;-0,00596
 939,23;21769,840;   -3,880;21652,869;-0,00234
 939,79;21490,141;   -5,040;21531,080; 0,00083
 940,34;21294,520;   -4,280;21370,670; 0,00155
 940,89;21132,789;   -4,740;21143,570; 0,00022
 941,44;20993,910;   -4,380;20937,859;-0,00116
 941,99;20806,391;   -3,940;20713,020;-0,00195
 942,54;20537,289;   -5,480;20553,510; 0,00034
 943,09;20349,150;   -3,880;20518,150; 0,00359
 943,64;20163,529;   -5,090;20428,580; 0,00567
 944,19;20015,010;   -5,340;20244,400; 0,00495
 944,74;19877,400;   -3,710;19990,340; 0,00246
 945,29;19720,820;   -5,160;19701,869;-0,00042
 945,84;19583,311;   -4,400;19478,080;-0,00234
 946,39;19370,619;   -4,460;19328,900;-0,00094
 946,94;19074,910;   -5,410;19144,580; 0,00158
 947,49;18795,369;   -4,180;18995,801; 0,00461
 948,04;18582,211;   -4,610;18751,000; 0,00393
 948,59;18461,400;   -4,750;18516,260; 0,00129
 949,14;18328,670;   -4,850;18202,529;-0,00300
 949,69;18106,301;   -5,620;17879,500;-0,00547
 950,24;17858,189;   -3,790;17604,930;-0,00620
 950,79;17601,641;   -4,710;17388,359;-0,00529
 951,34;17354,230;   -4,520;17211,881;-0,00358
 951,89;17094,619;   -4,340;16947,631;-0,00375
 952,44;16896,439;   -5,480;16685,730;-0,00545
 952,99;16719,480;   -3,460;16423,381;-0,00776
 953,54;16480,090;   -4,130;16107,550;-0,00993
 954,09;16232,930;   -4,900;15947,700;-0,00770
 954,64;15899,410;   -4,360;15787,590;-0,00306
 955,19;15582,220;   -4,960;15627,850; 0,00127
 955,74;15326,960;   -3,830;15432,850; 0,00299
 956,28;15139,860;   -3,900;15220,770; 0,00231
 956,83;15044,820;   -4,570;15025,940;-0,00055
 957,38;14911,200;   -3,590;14838,800;-0,00211
 957,93;14790,420;   -4,570;14724,150;-0,00195
 958,48;14630,350;   -4,100;14665,350; 0,00104
 959,03;14464,260;   -3,640;14608,060; 0,00430
 959,58;14339,040;   -5,480;14492,230; 0,00461
 960,13;14239,540;   -3,420;14365,100; 0,00381
 960,68;14205,650;   -5,120;14249,030; 0,00132
 961,23;14163,200;   -4,390;14114,410;-0,00150
 961,77;14065,190;   -3,440;13983,050;-0,00254
 962,32;13964,970;   -5,450;13885,620;-0,00247
 962,87;13831,340;   -3,920;13808,710;-0,00071
 963,42;13704,300;   -3,800;13727,660; 0,00074
 963,97;13651,460;   -5,350;13657,580; 0,00019
 964,52;13563,190;   -4,310;13525,830;-0,00120
 965,07;13469,310;   -5,340;13368,940;-0,00325
 965,61;13334,670;   -4,500;13241,890;-0,00303
 966,16;13170,670;   -3,930;13124,990;-0,00151
 966,71;12999,460;   -5,570;13012,530; 0,00044
 967,26;12832,930;   -3,900;12932,280; 0,00335
 967,81;12680,390;   -4,880;12794,580; 0,00389
 968,36;12578,400;   -4,750;12663,010; 0,00291
 968,90;12515,840;   -3,700;12517,710; 0,00006
 969,45;12470,360;   -5,280;12380,350;-0,00314
 970,00;12376,660;   -4,240;12262,050;-0,00404
 970,55;12274,930;   -4,080;12179,800;-0,00338
 971,10;12162,990;   -4,430;12116,430;-0,00167
 971,64;12044,150;   -3,970;12057,160; 0,00047
 972,19;11959,470;   -4,840;11996,610; 0,00135
 972,74;11916,260;   -4,180;11908,770;-0,00027
 973,29;11832,120;   -3,310;11789,950;-0,00155
 973,84;11757,140;   -5,270;11723,120;-0,00126
 974,38;11667,670;   -4,280;11669,420; 0,00007
 974,93;11557,590;   -4,310;11642,110; 0,00316
 975,48;11461,600;   -4,660;11622,220; 0,00604
 976,03;11378,140;   -3,850;11562,770; 0,00699
 976,57;11291,650;   -4,910;11416,090; 0,00476
 977,12;11229,080;   -3,680;11257,500; 0,00110
 977,67;11159,670;   -4,510;11104,460;-0,00215
 978,21;11076,480;   -4,880;10977,750;-0,00389
 978,76;10966,110;   -4,210;10862,820;-0,00411
 979,31;10865,900;   -4,990;10802,560;-0,00254
 979,86;10757,060;   -4,870;10733,010;-0,00097
 980,40;10710,330;   -3,780;10699,350;-0,00045
 980,95;10648,520;   -5,350;10593,600;-0,00224
 981,50;10646,300;   -3,940;10520,320;-0,00517
 982,04;10624,800;   -5,130;10436,190;-0,00777
 982,59;10563,560;   -3,910;10381,160;-0,00756
 983,14;10476,900;   -4,120;10342,720;-0,00560
 983,68;10359,250;   -5,830;10300,750;-0,00246
 984,23;10292,350;   -3,910;10266,360;-0,00110
 984,78;10248,090;   -4,280;10226,470;-0,00092
 985,32;10190,980;   -4,320;10140,000;-0,00218
 985,87;10168,150;   -3,890;10071,630;-0,00414
 986,42;10085,990;   -5,600; 9977,930;-0,00468
 986,96; 9995,870;   -4,570; 9921,120;-0,00326
 987,51; 9902,150;   -4,760; 9874,890;-0,00120
 988,06; 9801,940;   -4,790; 9810,200; 0,00037
 988,60; 9688,850;   -4,120; 9719,710; 0,00138
 989,15; 9654,250;   -4,600; 9652,510;-0,00008
 989,70; 9613,920;   -4,040; 9563,750;-0,00227
 990,24; 9569,630;   -4,030; 9430,500;-0,00636
 990,79; 9465,120;   -5,130; 9312,700;-0,00705
 991,33; 9367,020;   -4,770; 9226,600;-0,00656
 991,88; 9279,030;   -4,850; 9177,520;-0,00477
 992,43; 9207,190;   -4,530; 9132,280;-0,00355
 992,97; 9174,870;   -3,990; 9072,760;-0,00486
 993,52; 9107,910;   -4,940; 8971,290;-0,00656
 994,06; 9069,600;   -3,860; 8875,060;-0,00941
 994,61; 9025,290;   -4,220; 8780,240;-0,01195
 995,16; 8962,520;   -4,440; 8721,680;-0,01182
 995,70; 8849,780;   -3,890; 8661,180;-0,00935
 996,25; 8775,300;   -5,460; 8647,440;-0,00637
 996,79; 8715,710;   -4,010; 8634,880;-0,00404
 997,34; 8669,910;   -3,800; 8603,850;-0,00332
 997,88; 8641,500;   -4,800; 8566,220;-0,00380
 998,43; 8632,410;   -3,680; 8499,480;-0,00674
 998,97; 8582,050;   -4,770; 8419,500;-0,00830
 999,52; 8509,640;   -5,140; 8353,230;-0,00805
1000,06; 8418,750;   -3,880; 8296,500;-0,00635
1000,61; 8353,740;   -5,580; 8274,960;-0,00411
1001,15; 8283,020;   -3,870; 8240,260;-0,00225
1001,70; 8230,030;   -4,480; 8186,600;-0,00230
1002,24; 8180,050;   -4,730; 8111,070;-0,00368
1002,79; 8156,650;   -3,840; 8027,730;-0,00692
1003,33; 8092,580;   -5,170; 7938,970;-0,00832
1003,88; 8031,380;   -4,010; 7890,180;-0,00770
1004,42; 7981,360;   -4,140; 7838,240;-0,00785
1004,97; 7882,460;   -4,930; 7788,110;-0,00523
1005,51; 7802,520;   -3,720; 7743,680;-0,00329
1006,06; 7741,810;   -4,960; 7684,370;-0,00323
1006,60; 7705,150;   -3,890; 7618,230;-0,00492
1007,15; 7684,890;   -4,120; 7544,180;-0,00802
1007,69; 7665,250;   -5,130; 7490,870;-0,00999
1008,24; 7633,320;   -3,500; 7422,650;-0,01215
1008,78; 7564,610;   -4,430; 7389,340;-0,01017
1009,33; 7480,990;   -4,130; 7350,830;-0,00762
1009,87; 7417,360;   -4,660; 7327,530;-0,00529
1010,41; 7369,930;   -5,450; 7294,210;-0,00448
1010,96; 7340,040;   -3,650; 7239,370;-0,00599
1011,50; 7301,310;   -4,610; 7181,630;-0,00717
1012,05; 7282,860;   -4,640; 7118,770;-0,00989
1012,59; 7225,800;   -3,530; 7062,170;-0,00994
1013,13; 7171,200;   -5,390; 7007,280;-0,01003
1013,68; 7093,330;   -4,140; 6973,260;-0,00741
1014,22; 7018,940;   -4,620; 6936,690;-0,00512
1014,77; 6975,340;   -5,110; 6911,150;-0,00401
1015,31; 6946,210;   -3,800; 6873,530;-0,00457
1015,85; 6914,840;   -4,950; 6822,950;-0,00581
1016,40; 6871,480;   -4,760; 6766,320;-0,00669
1016,94; 6820,160;   -4,080; 6712,380;-0,00691
1017,48; 6754,510;   -5,310; 6690,510;-0,00413
1018,03; 6703,440;   -3,570; 6653,180;-0,00327
1018,57; 6627,710;   -4,790; 6622,100;-0,00037
1019,11; 6551,190;   -4,950; 6574,390; 0,00153
1019,66; 6505,880;   -3,740; 6520,850; 0,00100
1020,20; 6459,070;   -5,820; 6454,690;-0,00029
1020,74; 6411,320;   -4,550; 6370,180;-0,00279
1021,29; 6368,230;   -4,180; 6312,320;-0,00383
1021,83; 6292,900;   -4,970; 6253,340;-0,00274
1022,37; 6217,580;   -3,790; 6195,250;-0,00156
1022,92; 6144,350;   -5,190; 6157,300; 0,00091
1023,46; 6082,680;   -4,040; 6106,750; 0,00171
1024,00; 6032,850;   -4,280; 6052,410; 0,00140
1024,55; 5999,490;   -5,530; 5987,500;-0,00087
1025,09; 5965,910;   -3,150; 5937,720;-0,00206
1025,63; 5943,210;   -4,590; 5884,760;-0,00429
1026,17; 5902,510;   -4,470; 5822,410;-0,00593
1026,72; 5848,220;   -3,660; 5773,680;-0,00557
1027,26; 5798,930;   -5,330; 5759,420;-0,00297
1027,80; 5741,080;   -3,420; 5730,860;-0,00077
1028,35; 5689,390;   -5,270; 5701,320; 0,00091
1028,89; 5648,830;   -5,000; 5660,900; 0,00093
1029,43; 5635,470;   -4,110; 5617,530;-0,00138
1029,97; 5613,750;   -4,450; 5566,670;-0,00365
1030,52; 5587,030;   -4,520; 5514,780;-0,00565
1031,06; 5540,000;   -3,350; 5485,560;-0,00429
1031,60; 5477,570;   -4,860; 5430,060;-0,00378
1032,14; 5404,850;   -4,020; 5394,680;-0,00082
1032,68; 5342,160;   -4,850; 5361,300; 0,00155
1033,23; 5286,430;   -4,790; 5288,810; 0,00020
1033,77; 5223,540;   -4,840; 5222,130;-0,00012
1034,31; 5152,320;   -5,170; 5126,870;-0,00215
1034,85; 5084,500;   -3,610; 5040,150;-0,00380
1035,39; 4994,990;   -4,560; 4960,940;-0,00297
1035,94; 4940,450;   -4,660; 4888,580;-0,00458
1036,48; 4860,270;   -3,910; 4842,920;-0,00155
1037,02; 4770,350;   -4,900; 4781,210; 0,00099
1037,56; 4711,450;   -3,660; 4721,230; 0,00090
1038,10; 4635,190;   -4,400; 4651,920; 0,00156
1038,64; 4578,420;   -5,090; 4575,400;-0,00029
1039,19; 4522,680;   -3,720; 4511,040;-0,00112
1039,73; 4476,980;   -4,850; 4434,890;-0,00410
1040,27; 4414,530;   -4,480; 4372,810;-0,00412
1040,81; 4341,200;   -4,440; 4319,660;-0,00216
1041,35; 4281,570;   -5,480; 4272,220;-0,00095
1041,89; 4218,650;   -3,690; 4219,110; 0,00005
1042,43; 4150,480;   -5,000; 4169,110; 0,00194
1042,97; 4112,180;   -4,630; 4119,620; 0,00078
1043,52; 4063,220;   -3,910; 4060,000;-0,00034
1044,06; 4014,850;   -5,190; 3984,500;-0,00329
1044,60; 3970,750;   -4,720; 3926,570;-0,00485
1045,14; 3915,880;   -4,140; 3880,210;-0,00397
1045,68; 3851,940;   -5,290; 3822,130;-0,00337
1046,22; 3801,440;   -3,620; 3784,180;-0,00197
1046,76; 3748,340;   -4,790; 3737,080;-0,00130
1047,30; 3699,450;   -4,250; 3689,970;-0,00111
1047,84; 3652,430;   -4,250; 3624,250;-0,00336
1048,38; 3617,930;   -5,120; 3568,140;-0,00601
1048,92; 3579,840;   -4,300; 3509,530;-0,00860
1049,46; 3533,610;   -4,770; 3456,670;-0,00955
1050,00; 3481,490;   -4,210; 3412,450;-0,00869
1050,55; 3429,880;   -4,040; 3372,480;-0,00732
1051,09; 3373,480;   -5,440; 3325,460;-0,00622
1051,63; 3319,010;   -4,740; 3284,560;-0,00452
1052,17; 3273,910;   -4,640; 3243,940;-0,00399
1052,71; 3225,220;   -5,230; 3194,160;-0,00420
1053,25; 3185,250;   -4,280; 3144,530;-0,00558
1053,79; 3128,150;   -4,450; 3086,030;-0,00588
1054,33; 3086,050;   -4,350; 3029,710;-0,00799
1054,87; 3025,080;   -4,050; 2983,360;-0,00602
1055,41; 2980,280;   -5,180; 2943,960;-0,00532
1055,95; 2917,110;   -3,490; 2888,870;-0,00422
1056,49; 2867,550;   -4,900; 2852,440;-0,00229
1057,03; 2822,800;   -4,390; 2809,320;-0,00208
1057,57; 2785,830;   -4,180; 2764,880;-0,00327
1058,11; 2753,470;   -4,980; 2722,100;-0,00497
1058,64; 2728,200;   -3,250; 2679,390;-0,00783
1059,18; 2695,070;   -4,780; 2637,800;-0,00931
1059,72; 2653,600;   -4,450; 2605,280;-0,00797
1060,26; 2616,900;   -3,370; 2571,570;-0,00758
1060,80; 2582,480;   -5,500; 2546,510;-0,00608
1061,34; 2548,140;   -3,960; 2524,370;-0,00406
1061,88; 2512,530;   -3,520; 2490,380;-0,00384
1062,42; 2485,270;   -4,380; 2469,430;-0,00277
1062,96; 2450,950;   -4,110; 2434,410;-0,00294
1063,50; 2426,080;   -5,650; 2401,510;-0,00441
1064,04; 2399,150;   -4,180; 2368,990;-0,00548
1064,58; 2367,660;   -4,330; 2345,320;-0,00411
1065,12; 2337,450;   -4,940; 2316,780;-0,00385
1065,65; 2300,440;   -3,420; 2295,950;-0,00085
1066,19; 2269,990;   -4,790; 2264,790;-0,00099
1066,73; 2242,050;   -4,760; 2242,590; 0,00010
1067,27; 2219,000;   -4,100; 2203,600;-0,00302
1067,81; 2191,560;   -4,590; 2175,330;-0,00322
1068,35; 2168,710;   -3,730; 2142,590;-0,00525
1068,89; 2135,260;   -4,870; 2109,800;-0,00520
1069,43; 2108,420;   -4,460; 2083,900;-0,00507
1069,96; 2082,490;   -3,930; 2055,880;-0,00557
1070,50; 2050,210;   -4,530; 2032,320;-0,00380
1071,04; 2016,060;   -3,750; 2005,850;-0,00220
1071,58; 1988,890;   -4,060; 1986,250;-0,00058
1072,12; 1959,470;   -5,030; 1962,230; 0,00061
1072,66; 1939,590;   -2,940; 1933,470;-0,00137
1073,19; 1914,020;   -5,130; 1903,900;-0,00230
1073,73; 1889,460;   -4,740; 1873,820;-0,00360
1074,27; 1861,830;   -3,960; 1847,870;-0,00326
1074,81; 1833,500;   -4,740; 1819,760;-0,00326
1075,35; 1808,660;   -4,490; 1793,710;-0,00360
1075,88; 1778,630;   -4,880; 1773,490;-0,00125
1076,42; 1751,160;   -4,100; 1754,730; 0,00088
1076,96; 1726,360;   -3,970; 1732,540; 0,00155
1077,50; 1704,810;   -5,200; 1707,370; 0,00065
1078,04; 1687,930;   -4,150; 1682,070;-0,00151
1078,57; 1666,500;   -4,670; 1658,480;-0,00209
1079,11; 1643,340;   -5,360; 1641,060;-0,00060
1079,65; 1624,200;   -3,280; 1615,990;-0,00220
1080,19; 1599,050;   -5,700; 1594,990;-0,00110
1080,72; 1568,270;   -4,300; 1574,590; 0,00174
1081,26; 1550,710;   -4,130; 1555,990; 0,00147
1081,80; 1524,410;   -5,040; 1536,310; 0,00337
1082,33; 1503,810;   -4,540; 1517,330; 0,00388
1082,87; 1484,330;   -4,970; 1498,650; 0,00416
1083,41; 1464,930;   -4,350; 1473,650; 0,00257
1083,95; 1445,280;   -4,340; 1449,310; 0,00121
1084,48; 1426,720;   -5,020; 1427,430; 0,00022
1085,02; 1399,910;   -3,890; 1405,920; 0,00186
1085,56; 1381,040;   -4,700; 1382,280; 0,00039
1086,09; 1359,930;   -4,370; 1364,590; 0,00148
1086,63; 1338,110;   -4,040; 1342,520; 0,00142
1087,17; 1318,680;   -5,650; 1321,470; 0,00091
1087,70; 1299,450;   -3,660; 1300,870; 0,00047
1088,24; 1280,810;   -4,230; 1276,770;-0,00137
1088,78; 1267,200;   -4,890; 1256,280;-0,00374
1089,31; 1245,140;   -4,160; 1233,270;-0,00415
1089,85; 1224,320;   -5,030; 1215,390;-0,00317
1090,39; 1200,630;   -3,350; 1201,830; 0,00043
1090,92; 1185,650;   -3,870; 1182,580;-0,00112
1091,46; 1165,090;   -5,520; 1168,890; 0,00141
1092,00; 1150,940;   -4,280; 1151,670; 0,00027
1092,53; 1134,700;   -4,540; 1133,740;-0,00037
1093,07; 1116,190;   -4,410; 1118,370; 0,00084
1093,60; 1104,330;   -4,200; 1097,380;-0,00273
1094,14; 1085,990;   -4,850; 1081,900;-0,00163
1094,68; 1068,480;   -3,430; 1066,650;-0,00074
1095,21; 1052,120;   -4,650; 1051,160;-0,00039
1095,75; 1033,400;   -4,740; 1038,000; 0,00192
1096,28; 1017,830;   -4,820; 1025,030; 0,00305
1096,82;  998,350;   -4,770; 1010,930; 0,00541
1097,36;  982,520;   -4,400;  996,940; 0,00630
1097,89;  971,800;   -4,290;  980,350; 0,00379
1098,43;  958,780;   -4,340;  962,230; 0,00155
1098,96;  942,750;   -4,080;  949,140; 0,00292
1099,50;  929,510;   -4,960;  931,550; 0,00095
1100,03;  914,840;   -4,130;  916,290; 0,00068

