AE-579-300-2
Integration time [ms]:   9,690
Averaging Nr. [scans]: 100
Smoothing Nr. [pixels]: 0
Data measured with spectrometer [name]: 7420287SP
Wave   ;Sample   ;Dark     ;Reference;Absorbance
[nm]   ;[counts] ;[counts] ;[counts] ;[A.U]

 179,38;  -43,769;   -5,510;  -10,773; 0,00000
 179,98;  -45,523;   -7,560;  -14,039; 0,00000
 180,58;  -35,613;   -5,400;   -5,696; 0,00000
 181,18;  -42,064;   -7,110;  -10,754; 0,00000
 181,78;  -49,079;   -6,960;  -21,053; 0,00000
 182,38;  -56,101;   -5,400;  -25,243; 0,00000
 182,97;  -52,003;   -7,960;  -21,961; 0,00000
 183,57;  -54,251;   -6,410;  -24,173; 0,00000
 184,17;  -66,550;   -6,540;  -34,730; 0,00000
 184,77;  -66,744;   -7,820;  -38,557; 0,00000
 185,37;  -77,199;   -5,920;  -46,488; 0,00000
 185,97;  -82,561;   -8,520;  -50,106; 0,00000
 186,57;  -78,811;   -6,680;  -51,028; 0,00000
 187,17;  -91,155;   -6,290;  -59,394; 0,00000
 187,77; -113,897;   -8,000;  -85,055; 0,00000
 188,37; -102,040;   -6,070;  -74,778; 0,00000
 188,97; -125,258;   -7,720;  -96,892; 0,00000
 189,57; -126,047;   -7,160;  -96,281; 0,00000
 190,17; -145,791;   -6,190; -116,399; 0,00000
 190,77; -152,202;   -8,630; -122,912; 0,00000
 191,37; -165,857;   -6,090; -139,755; 0,00000
 191,96; -178,888;   -6,910; -151,213; 0,00000
 192,56; -216,217;   -7,470; -188,826; 0,00000
 193,16; -204,785;   -6,460; -178,574; 0,00000
 193,76; -182,517;   -7,750; -155,940; 0,00000
 194,36; -233,721;   -6,560; -207,634; 0,00000
 194,96; -238,407;   -7,270; -209,216; 0,00000
 195,56; -189,018;   -7,540; -162,883; 0,00000
 196,16; -148,335;   -5,910; -119,762; 0,00000
 196,76;  -96,982;   -7,500;  -66,781; 0,00000
 197,36;  -85,470;   -6,550;  -55,672; 0,00000
 197,95;  -62,893;   -5,560;  -32,191; 0,00000
 198,55;  -72,624;   -6,760;  -40,997; 0,00000
 199,15;  -63,564;   -4,730;  -33,254; 0,00000
 199,75;  -51,806;   -7,550;  -21,460; 0,00000
 200,35;  -65,379;   -6,290;  -35,093; 0,00000
 200,95;  -57,278;   -6,180;  -27,480; 0,00000
 201,55;  -57,319;   -7,070;  -26,273; 0,00000
 202,15;  -60,118;   -4,970;  -28,628; 0,00000
 202,74;  -47,766;   -6,990;  -13,758; 0,00000
 203,34;  -55,981;   -6,680;  -25,170; 0,00000
 203,94;  -38,345;   -5,500;   -7,405; 0,00000
 204,54;  -54,707;   -7,380;  -23,985; 0,00000
 205,14;  -42,728;   -5,970;  -13,087; 0,00000
 205,74;  -51,365;   -6,720;  -20,187; 0,00000
 206,34;  -49,411;   -6,730;  -17,100; 0,00000
 206,93;  -45,273;   -6,030;  -14,536; 0,00000
 207,53;  -50,442;   -7,240;  -18,083; 0,00000
 208,13;  -52,525;   -5,230;  -18,337; 0,00000
 208,73;  -44,585;   -5,770;  -11,915; 0,00000
 209,33;  -59,043;   -6,910;  -28,426; 0,00000
 209,93;  -45,244;   -4,630;  -14,751; 0,00000
 210,52;  -49,213;   -6,190;  -17,746; 0,00000
 211,12;  -36,175;   -5,880;   -5,881; 0,00000
 211,72;  -45,435;   -5,160;  -13,774; 0,00000
 212,32;  -43,182;   -6,840;  -10,810; 0,00000
 212,92;  -47,924;   -4,490;  -15,569; 0,00000
 213,52;  -46,760;   -5,650;  -13,973; 0,00000
 214,11;  -47,139;   -6,390;  -15,901; 0,00000
 214,71;  -41,234;   -4,220;   -4,908; 0,00000
 215,31;  -52,169;   -6,920;  -16,938; 0,00000
 215,91;  -30,884;   -4,060;    2,884; 5,00000
 216,51;  -44,757;   -5,580;  -10,339; 0,00000
 217,10;  -42,703;   -6,220;  -10,583; 0,00000
 217,70;  -52,158;   -4,180;  -17,045; 0,00000
 218,30;  -39,021;   -6,920;   -4,034; 5,00000
 218,90;  -48,854;   -4,740;  -14,829; 0,00000
 219,50;  -39,194;   -4,980;   -3,949; 5,00000
 220,09;  -38,970;   -6,040;   -4,023; 5,00000
 220,69;  -41,718;   -3,760;   -5,605; 0,00000
 221,29;  -38,619;   -5,910;   -2,190; 5,00000
 221,89;  -57,499;   -4,620;  -20,883; 0,00000
 222,49;  -42,183;   -3,970;   -3,523; 0,00000
 223,08;  -39,704;   -6,650;   -2,968; 5,00000
 223,68;  -37,439;   -3,870;   -0,370; 5,00000
 224,28;  -48,473;   -5,590;  -10,228; 0,00000
 224,88;  -45,675;   -4,930;   -8,752; 0,00000
 225,47;  -49,057;   -4,040;  -11,203; 0,00000
 226,07;  -40,103;   -6,140;   -1,045; 5,00000
 226,67;  -45,369;   -3,750;   -8,240; 0,00000
 227,27;  -41,107;   -5,840;   -1,112; 5,00000
 227,87;  -45,614;   -4,960;   -8,471; 0,00000
 228,46;  -39,407;   -3,590;   -3,529; 0,00000
 229,06;  -47,778;   -5,710;  -10,105; 0,00000
 229,66;  -36,613;   -4,880;   -0,245; 5,00000
 230,26;  -48,737;   -4,410;  -10,954; 0,00000
 230,85;  -52,670;   -6,040;  -16,964; 0,00000
 231,45;  -50,095;   -4,240;  -12,247; 0,00000
 232,05;  -44,115;   -5,320;   -3,882; 5,00000
 232,64;  -53,079;   -4,510;  -14,511; 0,00000
 233,24;  -57,761;   -3,880;  -19,950; 0,00000
 233,84;  -62,060;   -6,440;  -22,596; 0,00000
 234,44;  -53,299;   -4,030;  -14,860; 0,00000
 235,03;  -72,185;   -5,150;  -31,867; 0,00000
 235,63;  -60,301;   -5,500;  -20,179; 0,00000
 236,23;  -46,102;   -4,390;   -5,443; 0,00000
 236,83;  -47,942;   -5,530;   -8,482; 0,00000
 237,42;  -49,221;   -3,980;   -8,787; 0,00000
 238,02;  -65,601;   -5,210;  -23,572; 0,00000
 238,62;  -47,317;   -5,700;   -6,931; 0,00000
 239,21;  -51,643;   -4,270;  -10,389; 0,00000
 239,81;  -49,945;   -6,090;   -8,235; 0,00000
 240,41;  -52,308;   -4,720;  -12,467; 0,00000
 241,00;  -55,167;   -4,410;  -11,805; 0,00000
 241,60;  -55,722;   -5,710;  -13,445; 0,00000
 242,20;  -49,884;   -3,410;   -9,902; 0,00000
 242,80;  -52,773;   -4,870;   -9,519; 0,00000
 243,39;  -44,213;   -5,400;   -0,868; 5,00000
 243,99;  -58,085;   -4,520;  -12,498; 0,00000
 244,59;  -52,179;   -6,210;  -10,480; 0,00000
 245,18;  -55,087;   -3,750;   -9,455; 0,00000
 245,78;  -58,742;   -6,310;  -13,693; 0,00000
 246,38;  -58,517;   -6,310;  -14,805; 0,00000
 246,97;  -45,269;   -4,220;    0,009; 5,00000
 247,57;  -43,101;   -6,180;    2,993; 5,00000
 248,17;  -46,305;   -5,050;    2,348; 5,00000
 248,76;  -51,022;   -4,510;   -1,453; 5,00000
 249,36;  -42,232;   -6,960;    4,238; 5,00000
 249,96;  -45,529;   -4,270;    1,829; 5,00000
 250,55;  -33,401;   -6,540;   15,904; 5,00000
 251,15;  -45,270;   -4,960;    2,687; 5,00000
 251,75;  -40,177;   -4,280;    9,488; 5,00000
 252,34;  -45,070;   -6,450;    5,827; 5,00000
 252,94;  -31,131;   -4,540;   20,223; 5,00000
 253,54;  -47,558;   -5,920;    3,023; 5,00000
 254,13;  -41,511;   -5,140;    8,834; 5,00000
 254,73;  -29,173;   -5,020;   24,527; 5,00000
 255,32;  -51,711;   -7,020;    1,010; 5,00000
 255,92;  -35,449;   -4,860;   15,732; 5,00000
 256,52;  -43,906;   -5,400;   11,083; 5,00000
 257,11;  -42,791;   -6,640;   12,451; 5,00000
 257,71;  -26,769;   -5,060;   28,512; 5,00000
 258,31;  -40,668;   -6,500;   17,066; 5,00000
 258,90;  -44,175;   -5,510;   12,676; 5,00000
 259,50;  -37,303;   -5,490;   20,974; 5,00000
 260,09;  -41,346;   -6,020;   16,302; 5,00000
 260,69;  -37,068;   -4,440;   21,276; 5,00000
 261,29;  -37,639;   -6,440;   22,843; 5,00000
 261,88;  -39,882;   -5,080;   20,998; 5,00000
 262,48;  -39,428;   -4,640;   24,005; 5,00000
 263,07;  -44,215;   -6,620;   17,985; 5,00000
 263,67;  -37,738;   -4,310;   25,935; 5,00000
 264,27;  -27,979;   -5,770;   37,713; 5,00000
 264,86;  -34,290;   -5,750;   29,277; 5,00000
 265,46;  -32,365;   -4,320;   33,398; 5,00000
 266,05;  -26,615;   -6,570;   42,541; 5,00000
 266,65;  -35,240;   -4,800;   35,369; 5,00000
 267,24;  -35,369;   -5,360;   36,890; 5,00000
 267,84;  -34,595;   -5,900;   35,566; 5,00000
 268,44;  -45,309;   -4,240;   28,769; 5,00000
 269,03;  -36,270;   -6,010;   39,309; 5,00000
 269,63;  -33,750;   -4,720;   40,777; 5,00000
 270,22;  -34,701;   -5,220;   45,626; 5,00000
 270,82;  -36,914;   -6,450;   44,162; 5,00000
 271,41;  -33,420;   -3,750;   48,537; 5,00000
 272,01;  -48,034;   -6,510;   38,991; 5,00000
 272,61;  -31,298;   -4,960;   58,358; 5,00000
 273,20;  -36,429;   -4,610;   53,060; 5,00000
 273,80;  -32,981;   -6,730;   59,964; 5,00000
 274,39;  -30,906;   -4,370;   63,885; 5,00000
 274,99;  -37,724;   -6,770;   64,032; 5,00000
 275,58;  -28,012;   -5,180;   73,430; 5,00000
 276,18;  -35,363;   -4,940;   71,397; 5,00000
 276,77;  -25,602;   -6,350;   82,441; 5,00000
 277,37;  -30,204;   -4,810;   80,272; 5,00000
 277,96;  -37,035;   -5,470;   79,778; 5,00000
 278,56;  -25,435;   -5,660;   94,656; 5,00000
 279,15;  -29,561;   -4,020;   96,211; 5,00000
 279,75;  -43,000;   -6,150;   85,836; 5,00000
 280,34;  -26,107;   -4,510;  109,048; 5,00000
 280,94;  -26,437;   -4,970;  120,238; 5,00000
 281,53;  -38,072;   -6,390;  122,117; 5,00000
 282,13;  -38,257;   -4,280;  147,497; 5,00000
 282,73;  -27,643;   -5,380;  188,847; 5,00000
 283,32;  -27,443;   -5,640;  232,317; 5,00000
 283,92;  -34,493;   -4,350;  283,665; 5,00000
 284,51;  -19,901;   -6,320;  381,456; 5,00000
 285,10;  -30,285;   -4,430;  489,236; 5,00000
 285,70;  -35,208;   -6,090;  640,475; 5,00000
 286,29;  -25,597;   -5,550;  850,908; 5,00000
 286,89;  -18,061;   -4,370; 1092,034; 5,00000
 287,48;  -35,287;   -6,270; 1329,606; 5,00000
 288,08;  -26,950;   -4,760; 1594,906; 5,00000
 288,67;  -30,682;   -5,150; 1837,077; 5,00000
 289,27;  -31,401;   -6,210; 2052,300; 5,00000
 289,86;  -18,813;   -3,940; 2243,997; 5,00000
 290,46;  -22,147;   -5,990; 2344,281; 5,00000
 291,05;  -19,007;   -4,410; 2382,049; 5,00000
 291,65;  -22,619;   -4,700; 2428,509; 5,00000
 292,24;  -17,156;   -6,200; 2608,542; 5,00000
 292,84;  -17,719;   -4,510; 3006,450; 5,00000
 293,43;  -11,365;   -5,640; 3654,508; 5,00000
 294,03;   -6,283;   -5,470; 4519,182; 5,00000
 294,62;    1,142;   -4,280; 5522,385; 3,00829
 295,21;   17,771;   -6,830; 6595,019; 2,42872
 295,81;   36,716;   -4,050; 7666,649; 2,27454
 296,40;   49,957;   -6,200; 8624,504; 2,18664
 297,00;   83,062;   -5,550; 9441,023; 2,02778
 297,59;  115,381;   -4,790; 9961,349; 1,91873
 298,19;  153,200;   -6,420;10303,028; 1,81015
 298,78;  177,908;   -4,370;10862,887; 1,77539
 299,37;  226,667;   -4,960;11764,025; 1,70595
 299,97;  298,771;   -6,140;12595,415; 1,61625
 300,56;  340,179;   -3,490;13154,481; 1,58305
 301,16;  391,262;   -6,530;13577,386; 1,53337
 301,75;  445,949;   -5,770;13909,371; 1,48862
 302,35;  494,599;   -4,680;14270,453; 1,45624
 302,94;  547,267;   -6,210;14609,013; 1,42171
 303,53;  616,623;   -3,580;14894,959; 1,38061
 304,13;  671,608;   -5,560;15074,090; 1,34769
 304,72;  722,276;   -4,940;15284,300; 1,32272
 305,32;  777,533;   -4,140;15484,771; 1,29700
 305,91;  822,161;   -6,270;15599,771; 1,27504
 306,50;  874,669;   -4,680;15690,743; 1,25161
 307,10;  923,246;   -5,460;15795,702; 1,23081
 307,69;  966,556;   -5,650;15822,440; 1,21167
 308,28;  996,834;   -4,100;15812,134; 1,19870
 308,88; 1040,973;   -6,020;15780,169; 1,17833
 309,47; 1052,420;   -4,210;15668,286; 1,17122
 310,07; 1080,345;   -5,230;15562,354; 1,15656
 310,66; 1100,306;   -5,940;15443,031; 1,14505
 311,25; 1141,242;   -3,730;15400,814; 1,12885
 311,85; 1172,418;   -6,830;15389,276; 1,11581
 312,44; 1220,387;   -5,120;15390,343; 1,09908
 313,03; 1285,260;   -5,040;15420,146; 1,07754
 313,63; 1351,714;   -6,220;15440,983; 1,05597
 314,22; 1421,260;   -4,420;15415,637; 1,03406
 314,81; 1491,551;   -5,240;15374,990; 1,01180
 315,41; 1583,009;   -4,750;15345,303; 0,98533
 316,00; 1659,811;   -4,570;15298,497; 0,96353
 316,59; 1750,929;   -6,620;15234,142; 0,93810
 317,19; 1851,805;   -4,770;15176,666; 0,91260
 317,78; 1951,486;   -5,810;15152,919; 0,88901
 318,37; 2065,511;   -5,700;15244,260; 0,86704
 318,97; 2186,346;   -3,560;15411,671; 0,84752
 319,56; 2336,768;   -6,280;15686,967; 0,82593
 320,15; 2481,890;   -4,840;15992,626; 0,80842
 320,75; 2638,829;   -4,440;16309,043; 0,79041
 321,34; 2788,679;   -6,230;16598,141; 0,77385
 321,93; 2947,322;   -4,770;16913,506; 0,75823
 322,53; 3091,098;   -5,810;17219,916; 0,74525
 323,12; 3232,784;   -4,780;17477,910; 0,73239
 323,71; 3364,853;   -4,200;17708,648; 0,72078
 324,31; 3507,705;   -6,210;17942,926; 0,70825
 324,90; 3649,820;   -4,180;18181,295; 0,69696
 325,49; 3779,557;   -5,550;18402,805; 0,68694
 326,09; 3911,768;   -5,270;18592,588; 0,67651
 326,68; 4033,260;   -4,780;18753,965; 0,66703
 327,27; 4153,737;   -6,450;18889,613; 0,65726
 327,86; 4281,475;   -4,200;19019,006; 0,64726
 328,46; 4396,855;   -5,420;19132,777; 0,63822
 329,05; 4513,898;   -5,580;19206,730; 0,62849
 329,64; 4627,831;   -4,890;19258,461; 0,61890
 330,23; 4736,626;   -6,700;19296,881; 0,60955
 330,83; 4795,838;   -4,320;19229,654; 0,60281
 331,42; 4891,530;   -4,510;19134,248; 0,59207
 332,01; 4921,768;   -6,670;18973,580; 0,58559
 332,61; 4949,566;   -4,760;18719,822; 0,57743
 333,20; 4963,410;   -5,730;18474,117; 0,57042
 333,79; 5001,299;   -4,390;18310,412; 0,56334
 334,38; 5079,732;   -4,600;18288,877; 0,55606
 334,98; 5181,150;   -6,490;18375,656; 0,54943
 335,57; 5311,297;   -3,760;18533,775; 0,54254
 336,16; 5409,466;   -5,400;18592,311; 0,53587
 336,75; 5493,031;   -5,140;18639,924; 0,53035
 337,34; 5549,325;   -4,230;18595,539; 0,52494
 337,94; 5584,942;   -6,280;18518,105; 0,52024
 338,53; 5621,637;   -4,790;18426,543; 0,51532
 339,12; 5643,107;   -5,620;18287,164; 0,51033
 339,71; 5659,887;   -6,020;18140,326; 0,50552
 340,31; 5650,538;   -4,400;17980,869; 0,50249
 340,90; 5625,308;   -6,870;17734,242; 0,49830
 341,49; 5539,235;   -4,330;17331,355; 0,49515
 342,08; 5405,499;   -5,270;16812,941; 0,49252
 342,67; 5323,088;   -6,160;16427,877; 0,48908
 343,27; 5333,268;   -3,980;16358,059; 0,48652
 343,86; 5424,641;   -5,860;16523,768; 0,48342
 344,45; 5527,981;   -5,620;16778,004; 0,48188
 345,04; 5616,250;   -4,550;16926,484; 0,47889
 345,63; 5653,991;   -6,470;16995,326; 0,47764
 346,23; 5703,147;   -3,610;17005,723; 0,47430
 346,82; 5702,823;   -5,530;16952,072; 0,47285
 347,41; 5708,869;   -5,820;16900,480; 0,47106
 348,00; 5684,241;   -4,800;16744,275; 0,46895
 348,59; 5642,355;   -6,400;16561,121; 0,46730
 349,19; 5632,074;   -4,240;16448,598; 0,46525
 349,78; 5623,917;   -4,880;16368,474; 0,46372
 350,37; 5608,825;   -5,690;16259,348; 0,46194
 350,96; 5586,008;   -3,670;16130,479; 0,46036
 351,55; 5541,699;   -5,790;15985,678; 0,45979
 352,14; 5521,218;   -4,690;15830,997; 0,45723
 352,74; 5462,596;   -5,240;15644,391; 0,45669
 353,33; 5389,945;   -6,170;15377,396; 0,45498
 353,92; 5293,010;   -4,710;15122,926; 0,45568
 354,51; 5208,006;   -6,360;14839,582; 0,45441
 355,10; 5137,856;   -5,400;14586,872; 0,45288
 355,69; 5071,126;   -3,930;14383,051; 0,45253
 356,28; 5086,792;   -6,200;14369,546; 0,45066
 356,88; 5105,085;   -5,220;14397,774; 0,45001
 357,47; 5165,326;   -5,880;14481,051; 0,44738
 358,06; 5209,779;   -5,620;14556,044; 0,44592
 358,65; 5223,334;   -4,040;14574,642; 0,44543
 359,24; 5221,671;   -6,190;14546,938; 0,44463
 359,83; 5218,496;   -4,530;14486,629; 0,44318
 360,42; 5223,130;   -4,970;14406,809; 0,44037
 361,01; 5203,308;   -5,580;14335,448; 0,43984
 361,61; 5173,939;   -4,820;14219,949; 0,43882
 362,20; 5152,320;   -5,890;14123,874; 0,43764
 362,79; 5109,637;   -4,730;13939,354; 0,43560
 363,38; 5036,605;   -4,580;13716,135; 0,43484
 363,97; 4939,434;   -6,030;13388,054; 0,43271
 364,56; 4791,056;   -3,890;12944,948; 0,43145
 365,15; 4689,731;   -5,990;12649,014; 0,43056
 365,74; 4751,101;   -4,980;12748,966; 0,42840
 366,33; 4933,651;   -4,740;13132,142; 0,42491
 366,92; 5051,570;   -6,590;13421,214; 0,42401
 367,51; 5111,226;   -3,400;13527,996; 0,42253
 368,11; 5105,753;   -5,330;13457,836; 0,42063
 368,70; 5127,708;   -5,950;13419,267; 0,41749
 369,29; 5154,321;   -3,890;13413,050; 0,41515
 369,88; 5094,811;   -5,910;13229,327; 0,41410
 370,47; 5049,439;   -4,670;13067,463; 0,41270
 371,06; 5042,097;   -5,630;12985,483; 0,41055
 371,65; 5048,910;   -6,140;12949,786; 0,40874
 372,24; 5027,632;   -4,280;12836,595; 0,40686
 372,83; 4988,112;   -6,770;12709,632; 0,40584
 373,42; 4957,330;   -5,180;12579,914; 0,40416
 374,01; 4932,724;   -4,930;12487,080; 0,40311
 374,60; 4949,561;   -6,020;12473,518; 0,40110
 375,19; 4960,700;   -4,300;12470,964; 0,40013
 375,78; 4962,987;   -5,730;12428,613; 0,39838
 376,37; 4985,934;   -5,690;12499,771; 0,39886
 376,96; 5113,216;   -4,100;12744,948; 0,39644
 377,55; 5247,697;   -6,230;13046,632; 0,39522
 378,14; 5398,718;   -4,190;13350,667; 0,39301
 378,73; 5541,859;   -5,160;13637,321; 0,39083
 379,32; 5613,138;   -6,060;13791,153; 0,39012
 379,91; 5516,398;   -4,170;13527,798; 0,38938
 380,50; 5492,169;   -6,310;13420,151; 0,38772
 381,09; 5423,713;   -4,660;13230,006; 0,38704
 381,68; 5377,545;   -4,690;13119,203; 0,38710
 382,27; 5431,125;   -5,860;13219,174; 0,38604
 382,86; 5426,357;   -4,360;13147,425; 0,38413
 383,45; 5314,187;   -6,280;12903,881; 0,38498
 384,04; 5238,868;   -5,120;12675,745; 0,38349
 384,63; 5095,369;   -4,860;12283,930; 0,38192
 385,22; 4952,573;   -6,360;11946,786; 0,38209
 385,81; 4962,028;   -4,090;11974,736; 0,38240
 386,40; 5105,000;   -5,970;12289,634; 0,38125
 386,99; 5329,542;   -5,240;12790,183; 0,37994
 387,58; 5475,833;   -4,100;13148,157; 0,38023
 388,17; 5595,456;   -6,130;13376,098; 0,37822
 388,76; 5582,099;   -4,370;13352,338; 0,37856
 389,35; 5425,073;   -5,320;12984,016; 0,37876
 389,94; 5409,113;   -5,650;12920,808; 0,37790
 390,53; 5438,362;   -4,040;13003,771; 0,37841
 391,12; 5505,396;   -6,020;13143,115; 0,37763
 391,71; 5669,108;   -4,950;13503,889; 0,37672
 392,30; 5911,449;   -5,100;14049,748; 0,37576
 392,89; 6026,617;   -5,700;14264,843; 0,37396
 393,48; 5717,438;   -4,760;13572,723; 0,37526
 394,07; 5475,808;   -5,830;12992,976; 0,37499
 394,66; 5418,114;   -5,410;12821,740; 0,37385
 395,25; 5339,798;   -4,740;12649,144; 0,37431
 395,84; 5296,673;   -6,630;12550,258; 0,37434
 396,43; 5382,435;   -4,350;12720,665; 0,37333
 397,01; 5552,414;   -5,980;13092,638; 0,37228
 397,60; 5854,187;   -4,850;13763,939; 0,37107
 398,19; 6113,166;   -4,460;14318,890; 0,36946
 398,78; 6047,288;   -6,650;14131,125; 0,36834
 399,37; 5761,808;   -4,360;13462,778; 0,36839
 399,96; 5529,602;   -5,210;12943,043; 0,36911
 400,55; 5429,426;   -5,710;12716,579; 0,36935
 401,14; 5405,735;   -4,200;12613,276; 0,36778
 401,73; 5265,910;   -5,810;12332,224; 0,36929
 402,32; 5218,457;   -4,060;12206,871; 0,36887
 402,91; 5192,823;   -5,240;12126,987; 0,36810
 403,49; 5185,866;   -6,320;12078,089; 0,36688
 404,08; 5186,643;   -4,410;12092,354; 0,36741
 404,67; 5226,563;   -5,900;12143,049; 0,36583
 405,26; 5191,784;   -5,010;12058,996; 0,36576
 405,85; 4983,203;   -4,240;11584,196; 0,36615
 406,44; 4720,108;   -6,140;11005,056; 0,36732
 407,03; 4663,057;   -3,790;10851,094; 0,36660
 407,62; 4700,254;   -5,430;10957,511; 0,36730
 408,20; 4871,384;   -5,790;11369,509; 0,36779
 408,79; 4933,485;   -4,380;11500,753; 0,36735
 409,38; 4859,850;   -6,100;11370,734; 0,36885
 409,97; 4753,479;   -4,180;11136,461; 0,36952
 410,56; 4560,996;   -3,910;10720,518; 0,37094
 411,15; 4451,634;   -5,640;10519,402; 0,37315
 411,73; 4381,514;   -4,530;10363,529; 0,37362
 412,32; 4361,681;   -5,870;10364,057; 0,37554
 412,91; 4318,792;   -5,590;10293,842; 0,37689
 413,50; 4239,455;   -4,880;10136,052; 0,37827
 414,09; 4105,489;   -5,880; 9850,479; 0,37973
 414,68; 4005,507;   -4,010; 9646,101; 0,38144
 415,26; 3986,831;   -6,410; 9623,129; 0,38228
 415,85; 4042,425;   -4,660; 9793,142; 0,38399
 416,44; 4127,811;   -4,690;10018,855; 0,38481
 417,03; 4152,436;   -5,940;10114,478; 0,38627
 417,62; 4188,384;   -4,450;10261,721; 0,38890
 418,21; 4232,331;   -5,060;10399,108; 0,39011
 418,79; 4305,828;   -5,210;10622,955; 0,39188
 419,38; 4365,855;   -3,760;10817,274; 0,39383
 419,97; 4462,599;   -6,270;11107,787; 0,39568
 420,56; 4691,024;   -4,780;11717,830; 0,39731
 421,15; 4984,137;   -4,960;12475,202; 0,39820
 421,73; 5051,006;   -5,630;12691,927; 0,39986
 422,32; 4747,351;   -4,310;11994,148; 0,40228
 422,91; 4457,796;   -6,200;11343,890; 0,40528
 423,50; 4287,115;   -5,070;10975,196; 0,40793
 424,08; 4202,340;   -5,300;10824,325; 0,41057
 424,67; 4186,589;   -6,580;10830,971; 0,41239
 425,26; 4076,922;   -3,900;10600,790; 0,41475
 425,85; 3892,698;   -5,670;10190,276; 0,41754
 426,43; 3832,041;   -4,950;10126,806; 0,42169
 427,02; 3933,988;   -3,950;10408,375; 0,42228
 427,61; 3957,948;   -6,190;10571,402; 0,42624
 428,20; 4009,665;   -4,610;10736,313; 0,42743
 428,79; 4191,077;   -5,290;11327,122; 0,43145
 429,37; 4622,522;   -5,450;12517,814; 0,43233
 429,96; 4792,457;   -3,730;13043,339; 0,43462
 430,55; 4600,336;   -6,660;12560,958; 0,43584
 431,13; 4147,534;   -4,740;11404,849; 0,43898
 431,72; 3694,208;   -5,010;10251,057; 0,44287
 432,31; 3545,889;   -5,740; 9882,698; 0,44470
 432,90; 3690,797;   -3,190;10309,324; 0,44587
 433,48; 4102,732;   -6,260;11461,981; 0,44576
 434,07; 3891,835;   -4,620;10922,533; 0,44784
 434,66; 3613,377;   -4,710;10217,992; 0,45109
 435,25; 3560,856;   -5,610;10133,616; 0,45377
 435,83; 3533,194;   -4,400;10144,009; 0,45769
 436,42; 3583,161;   -5,340;10286,367; 0,45757
 437,01; 3412,172;   -4,860; 9806,583; 0,45808
 437,59; 3347,245;   -4,040; 9657,972; 0,45986
 438,18; 3398,310;   -6,070; 9845,942; 0,46149
 438,77; 3382,826;   -4,590; 9839,709; 0,46332
 439,35; 3295,093;   -5,960; 9625,876; 0,46506
 439,94; 3238,220;   -4,870; 9517,284; 0,46778
 440,53; 3421,880;   -4,440;10133,321; 0,47111
 441,11; 3807,639;   -6,390;11259,519; 0,47038
 441,70; 3774,569;   -5,150;11192,398; 0,47166
 442,29; 3629,646;   -4,570;10778,276; 0,47232
 442,87; 3658,546;   -5,310;10932,536; 0,47499
 443,46; 3724,963;   -3,750;11102,226; 0,47400
 444,05; 3563,626;   -5,760;10722,903; 0,47795
 444,63; 3494,423;   -4,790;10515,734; 0,47807
 445,22; 3403,527;   -4,300;10267,291; 0,47916
 445,81; 3363,302;   -5,290;10154,400; 0,47943
 446,39; 3401,054;   -4,530;10254,332; 0,47891
 446,98; 3210,883;   -6,140; 9789,022; 0,48356
 447,57; 3092,568;   -4,950; 9454,917; 0,48487
 448,15; 3001,391;   -4,540; 9249,905; 0,48837
 448,74; 3042,324;   -6,770; 9392,277; 0,48891
 449,33; 3053,542;   -4,210; 9462,422; 0,49079
 449,91; 3013,747;   -5,700; 9385,659; 0,49280
 450,50; 2971,721;   -5,960; 9250,336; 0,49256
 451,08; 2890,066;   -4,360; 9037,916; 0,49472
 451,67; 2913,309;   -6,090; 9131,010; 0,49551
 452,26; 2845,553;   -4,400; 8944,574; 0,49694
 452,84; 2731,413;   -5,160; 8599,175; 0,49751
 453,43; 2620,032;   -5,490; 8289,420; 0,49960
 454,02; 2585,330;   -4,460; 8189,224; 0,50021
 454,60; 2613,949;   -5,500; 8329,680; 0,50270
 455,19; 2709,291;   -5,040; 8668,114; 0,50451
 455,77; 2591,149;   -4,750; 8309,398; 0,50553
 456,36; 2505,713;   -6,110; 8096,943; 0,50866
 456,95; 2584,350;   -3,940; 8325,853; 0,50762
 457,53; 2686,104;   -5,570; 8635,221; 0,50653
 458,12; 2676,575;   -5,320; 8641,623; 0,50842
 458,70; 2673,085;   -4,630; 8645,895; 0,50928
 459,29; 2695,276;   -5,940; 8778,078; 0,51213
 459,87; 2687,394;   -3,980; 8733,487; 0,51141
 460,46; 2629,091;   -4,210; 8595,817; 0,51400
 461,05; 2614,703;   -5,930; 8540,624; 0,51338
 461,63; 2351,660;   -3,930; 7715,275; 0,51547
 462,22; 2202,574;   -6,430; 7298,480; 0,51942
 462,80; 2225,861;   -4,610; 7405,735; 0,52144
 463,39; 2369,066;   -4,190; 7851,195; 0,51982
 463,97; 2409,134;   -5,870; 8005,507; 0,52079
 464,56; 2550,094;   -4,290; 8471,190; 0,52088
 465,14; 2667,955;   -5,460; 8889,102; 0,52206
 465,73; 2730,556;   -5,240; 9040,217; 0,51935
 466,31; 2383,819;   -4,390; 7988,398; 0,52463
 466,90; 2149,250;   -6,340; 7232,441; 0,52610
 467,49; 2075,927;   -4,000; 6981,139; 0,52613
 468,07; 2024,630;   -5,390; 6850,334; 0,52855
 468,66; 1911,362;   -5,300; 6477,199; 0,52920
 469,24; 1834,558;   -4,210; 6228,805; 0,53017
 469,83; 1775,125;   -5,610; 6040,442; 0,53087
 470,41; 1766,390;   -4,520; 6010,011; 0,53101
 471,00; 1745,587;   -5,450; 5950,109; 0,53163
 471,58; 1784,310;   -5,670; 6064,703; 0,53037
 472,17; 1826,286;   -4,290; 6194,145; 0,52969
 472,75; 1900,966;   -5,770; 6401,707; 0,52640
 473,34; 1945,823;   -4,670; 6578,553; 0,52829
 473,92; 1937,898;   -5,250; 6529,915; 0,52675
 474,51; 2007,405;   -5,970; 6732,175; 0,52462
 475,09; 2125,270;   -4,370; 7109,133; 0,52378
 475,68; 2012,758;   -5,730; 6751,372; 0,52473
 476,26; 1952,754;   -4,920; 6524,169; 0,52311
 476,85; 1878,790;   -4,140; 6279,104; 0,52335
 477,43; 1900,002;   -6,430; 6354,727; 0,52331
 478,01; 2016,564;   -4,670; 6665,300; 0,51851
 478,60; 1945,125;   -4,720; 6433,771; 0,51878
 479,18; 1986,271;   -5,210; 6544,706; 0,51706
 479,77; 2121,875;   -4,940; 6915,313; 0,51239
 480,35; 2162,209;   -5,700; 6960,491; 0,50695
 480,94; 2121,549;   -4,900; 6820,948; 0,50650
 481,52; 2232,980;   -5,770; 7118,651; 0,50274
 482,11; 2132,018;   -4,910; 6747,344; 0,49966
 482,69; 2016,534;   -3,280; 6356,161; 0,49811
 483,27; 2047,212;   -5,560; 6401,111; 0,49429
 483,86; 2173,418;   -4,780; 6741,065; 0,49094
 484,44; 2510,497;   -4,570; 7736,951; 0,48828
 485,03; 4194,937;   -5,740;12709,101; 0,48099
 485,61; 8496,368;   -4,420;24795,395; 0,46499
 486,20; 6210,854;   -5,360;18033,010; 0,46267
 486,78; 3208,975;   -4,430; 9463,612; 0,46929
 487,36; 2495,862;   -4,190; 7308,160; 0,46611
 487,95; 2088,192;   -6,230; 6074,567; 0,46290
 488,53; 2032,404;   -5,090; 5836,959; 0,45747
 489,12; 1996,957;   -5,650; 5674,179; 0,45274
 489,70; 1909,073;   -5,260; 5401,823; 0,45095
 490,28; 1885,247;   -3,670; 5307,428; 0,44897
 490,87; 1965,102;   -5,330; 5458,979; 0,44297
 491,45; 1975,630;   -4,010; 5425,870; 0,43820
 492,04; 2011,394;   -4,510; 5462,491; 0,43328
 492,62; 2023,723;   -6,300; 5448,078; 0,42924
 493,20; 2094,479;   -4,150; 5543,594; 0,42218
 493,79; 2114,282;   -5,730; 5569,333; 0,41991
 494,37; 2157,992;   -5,520; 5615,238; 0,41464
 494,95; 2060,420;   -4,790; 5321,480; 0,41146
 495,54; 2183,214;   -5,940; 5586,891; 0,40736
 496,12; 2509,204;   -3,930; 6291,216; 0,39879
 496,71; 2327,274;   -5,360; 5775,673; 0,39416
 497,29; 2066,002;   -5,370; 5114,288; 0,39298
 497,87; 2042,703;   -4,450; 5028,478; 0,39067
 498,46; 2130,794;   -6,380; 5183,750; 0,38534
 499,04; 2265,430;   -4,540; 5445,795; 0,38040
 499,62; 2357,582;   -5,100; 5600,604; 0,37522
 500,21; 2245,404;   -5,190; 5309,173; 0,37315
 500,79; 2355,593;   -4,330; 5514,451; 0,36895
 501,37; 2495,901;   -6,250; 5769,021; 0,36326
 501,96; 2544,423;   -4,530; 5788,821; 0,35657
 502,54; 2564,801;   -4,730; 5807,266; 0,35447
 503,12; 2607,768;   -5,590; 5844,167; 0,34994
 503,71; 2518,264;   -4,370; 5646,016; 0,35022
 504,29; 2488,620;   -6,130; 5499,790; 0,34380
 504,87; 2516,889;   -5,160; 5536,836; 0,34191
 505,45; 2547,716;   -3,960; 5526,486; 0,33593
 506,04; 2662,104;   -5,920; 5697,883; 0,32997
 506,62; 2609,235;   -4,200; 5505,618; 0,32393
 507,20; 2482,065;   -5,280; 5209,616; 0,32151
 507,79; 2599,032;   -5,350; 5374,643; 0,31508
 508,37; 2608,698;   -3,950; 5324,975; 0,30956
 508,95; 2475,368;   -6,380; 5025,741; 0,30699
 509,53; 2479,314;   -4,140; 4966,750; 0,30138
 510,12; 2501,252;   -4,610; 4958,702; 0,29681
 510,70; 2452,091;   -5,710; 4824,367; 0,29341
 511,28; 2421,894;   -3,020; 4704,010; 0,28805
 511,87; 2325,872;   -5,560; 4467,100; 0,28294
 512,45; 2358,163;   -4,170; 4484,370; 0,27876
 513,03; 2407,024;   -5,060; 4530,456; 0,27423
 513,61; 2348,747;   -5,190; 4392,975; 0,27148
 514,20; 2338,412;   -4,170; 4332,147; 0,26743
 514,78; 2239,602;   -4,890; 4132,000; 0,26556
 515,36; 2266,203;   -4,960; 4141,441; 0,26142
 515,94; 2404,701;   -4,640; 4351,190; 0,25717
 516,52; 2445,296;   -5,910; 4374,728; 0,25216
 517,11; 2367,769;   -4,280; 4214,439; 0,25006
 517,69; 2312,299;   -4,750; 4095,061; 0,24783
 518,27; 2367,021;   -5,270; 4137,637; 0,24214
 518,85; 2556,218;   -4,350; 4381,610; 0,23373
 519,44; 2473,970;   -6,290; 4223,359; 0,23181
 520,02; 2336,455;   -4,520; 3964,128; 0,22925
 520,60; 2363,656;   -5,070; 4003,571; 0,22848
 521,18; 2447,567;   -4,950; 4126,305; 0,22647
 521,76; 2445,555;   -4,220; 4101,969; 0,22431
 522,35; 2597,210;   -6,290; 4310,493; 0,21960
 522,93; 2723,683;   -5,190; 4479,855; 0,21578
 523,51; 2876,622;   -4,870; 4697,569; 0,21271
 524,09; 3001,154;   -5,560; 4862,445; 0,20926
 524,67; 3026,398;   -3,230; 4886,444; 0,20789
 525,26; 3134,404;   -5,050; 5038,081; 0,20585
 525,84; 3312,633;   -4,770; 5285,563; 0,20268
 526,42; 3489,092;   -3,330; 5532,902; 0,20009
 527,00; 3651,674;   -5,470; 5770,077; 0,19845
 527,58; 3791,031;   -4,130; 5955,848; 0,19601
 528,16; 4113,746;   -5,270; 6415,039; 0,19276
 528,75; 4431,568;   -5,360; 6848,228; 0,18884
 529,33; 4449,603;   -4,260; 6839,586; 0,18656
 529,91; 4450,528;   -5,820; 6811,817; 0,18465
 530,49; 4516,384;   -4,820; 6848,223; 0,18063
 531,07; 4540,447;   -4,750; 6863,703; 0,17931
 531,65; 4589,310;   -5,760; 6884,736; 0,17596
 532,23; 4594,137;   -4,530; 6826,018; 0,17182
 532,82; 4783,536;   -6,180; 7048,260; 0,16815
 533,40; 4833,913;   -4,170; 7063,360; 0,16459
 533,98; 4785,433;   -4,790; 6944,260; 0,16157
 534,56; 4729,882;   -5,680; 6814,785; 0,15844
 535,14; 4641,985;   -4,210; 6670,452; 0,15733
 535,72; 4462,744;   -5,190; 6410,764; 0,15715
 536,30; 4290,505;   -4,920; 6151,369; 0,15631
 536,88; 4325,843;   -4,170; 6155,186; 0,15305
 537,47; 4546,621;   -5,650; 6418,585; 0,14959
 538,05; 4691,828;   -4,550; 6605,759; 0,14846
 538,63; 4789,561;   -5,230; 6721,025; 0,14700
 539,21; 4864,189;   -5,650; 6786,479; 0,14449
 539,79; 4846,808;   -3,600; 6745,742; 0,14348
 540,37; 4987,538;   -5,610; 6898,581; 0,14074
 540,95; 5219,631;   -4,610; 7178,887; 0,13831
 541,53; 5280,155;   -4,440; 7228,253; 0,13629
 542,11; 5360,146;   -5,520; 7323,254; 0,13541
 542,69; 5422,991;   -4,460; 7394,117; 0,13455
 543,27; 5530,419;   -6,170; 7502,061; 0,13230
 543,85; 5672,448;   -5,200; 7650,437; 0,12981
 544,44; 5736,441;   -4,540; 7706,991; 0,12815
 545,02; 5720,866;   -5,210; 7665,808; 0,12700
 545,60; 5575,534;   -3,840; 7482,382; 0,12768
 546,18; 5679,563;   -5,680; 7604,014; 0,12662
 546,76; 5987,005;   -5,590; 7971,683; 0,12424
 547,34; 6454,291;   -3,860; 8554,871; 0,12230
 547,92; 6723,667;   -5,650; 8879,835; 0,12071
 548,50; 6578,559;   -4,250; 8690,641; 0,12085
 549,08; 6542,978;   -4,500; 8687,050; 0,12302
 549,66; 6798,809;   -4,990; 9021,604; 0,12277
 550,24; 7055,125;   -4,050; 9364,469; 0,12292
 550,82; 7269,361;   -5,680; 9625,422; 0,12184
 551,40; 7802,799;   -4,820;10298,904; 0,12048
 551,98; 8395,771;   -5,060;11020,842; 0,11809
 552,56; 8552,896;   -6,000;11197,671; 0,11694
 553,14; 8814,718;   -3,820;11480,781; 0,11472
 553,72; 9055,326;   -5,970;11754,813; 0,11325
 554,30; 9231,280;   -4,730;11980,700; 0,11317
 554,88; 9725,114;   -4,540;12548,268; 0,11064
 555,46;10124,729;   -6,300;13028,204; 0,10944
 556,04;10300,339;   -4,150;13253,867; 0,10945
 556,62;10324,224;   -5,460;13268,866; 0,10893
 557,20;10488,380;   -4,890;13475,948; 0,10881
 557,78;10618,374;   -4,180;13600,998; 0,10748
 558,36;10624,253;   -5,890;13603,802; 0,10731
 558,94;10760,306;   -3,830;13769,632; 0,10706
 559,52;11066,689;   -5,450;14104,440; 0,10529
 560,10;11433,898;   -5,650;14511,287; 0,10347
 560,68;11634,437;   -4,260;14730,109; 0,10243
 561,26;11660,502;   -5,140;14761,742; 0,10238
 561,84;11640,119;   -4,980;14756,670; 0,10299
 562,42;11788,727;   -5,060;14968,161; 0,10366
 563,00;12031,806;   -5,610;15285,754; 0,10391
 563,58;12304,678;   -3,950;15630,074; 0,10386
 564,15;12565,294;   -5,380;15936,721; 0,10319
 564,73;12791,266;   -4,500;16197,865; 0,10251
 565,31;13015,670;   -4,820;16419,855; 0,10087
 565,89;13317,316;   -5,520;16795,164; 0,10073
 566,47;13582,421;   -4,170;17089,439; 0,09972
 567,05;14085,541;   -5,440;17709,762; 0,09940
 567,63;14356,801;   -5,590;18075,350; 0,09999
 568,21;14873,890;   -3,600;18705,928; 0,09953
 568,79;15423,265;   -5,770;19369,254; 0,09890
 569,37;16275,635;   -4,630;20346,938; 0,09694
 569,95;16681,688;   -5,250;20754,416; 0,09484
 570,53;17129,045;   -5,700;21209,238; 0,09276
 571,10;17468,203;   -4,430;21593,779; 0,09206
 571,68;17649,217;   -5,500;21768,262; 0,09107
 572,26;17012,727;   -4,540;21051,453; 0,09249
 572,84;17724,754;   -4,750;21902,873; 0,09190
 573,42;18586,531;   -5,710;22901,822; 0,09065
 574,00;19237,705;   -4,300;23614,650; 0,08901
 574,58;19195,771;   -5,070;23563,039; 0,08900
 575,16;18601,979;   -4,870;22896,445; 0,09019
 575,73;18437,098;   -4,490;22737,027; 0,09102
 576,31;19553,232;   -5,320;24032,059; 0,08955
 576,89;20266,910;   -4,430;24842,340; 0,08839
 577,47;21702,199;   -4,970;26451,555; 0,08593
 578,05;21037,986;   -5,190;25671,629; 0,08643
 578,63;19707,893;   -4,490;24185,248; 0,08889
 579,21;19737,230;   -5,810;24291,572; 0,09015
 579,78;20288,486;   -4,590;24970,604; 0,09016
 580,36;20776,256;   -4,850;25586,652; 0,09043
 580,94;22590,531;   -5,720;27683,408; 0,08827
 581,52;23192,760;   -3,330;28335,918; 0,08697
 582,10;22001,002;   -5,710;27037,439; 0,08950
 582,67;20798,789;   -4,600;25695,531; 0,09180
 583,25;20288,438;   -5,160;25148,572; 0,09324
 583,83;20761,760;   -5,710;25693,820; 0,09254
 584,41;21615,813;   -4,110;26711,703; 0,09191
 584,99;22368,162;   -5,220;27624,320; 0,09164
 585,57;22039,035;   -4,740;27361,779; 0,09393
 586,14;21648,020;   -4,760;27007,686; 0,09605
 586,72;22175,994;   -5,350;27720,662; 0,09690
 587,30;22457,990;   -3,860;28086,492; 0,09711
 587,88;22337,172;   -5,240;27926,854; 0,09697
 588,45;22412,650;   -5,230;27993,469; 0,09654
 589,03;22409,729;   -4,020;28056,172; 0,09758
 589,61;22690,869;   -5,790;28464,064; 0,09842
 590,19;22829,232;   -4,490;28654,566; 0,09869
 590,77;22954,865;   -5,400;28787,723; 0,09831
 591,34;23279,963;   -5,310;29195,711; 0,09832
 591,92;23623,170;   -3,570;29524,449; 0,09683
 592,50;24215,439;   -5,430;30165,789; 0,09540
 593,08;24335,660;   -5,320;30336,215; 0,09570
 593,65;24195,113;   -4,920;30270,824; 0,09728
 594,23;24218,045;   -5,610;30392,027; 0,09860
 594,81;24468,281;   -3,840;30763,477; 0,09942
 595,39;24575,719;   -5,670;30914,625; 0,09964
 595,96;24687,438;   -4,920;31100,668; 0,10028
 596,54;24834,193;   -4,290;31317,381; 0,10072
 597,12;25017,043;   -5,440;31640,865; 0,10199
 597,69;25145,709;   -4,160;31819,477; 0,10221
 598,27;25384,816;   -4,900;32098,350; 0,10189
 598,85;25594,004;   -5,090;32431,717; 0,10281
 599,43;25544,619;   -4,010;32475,203; 0,10424
 600,00;25608,168;   -5,700;32590,869; 0,10470
 600,58;25738,182;   -3,600;32710,359; 0,10409
 601,16;25850,963;   -4,110;32750,094; 0,10272
 601,73;25946,838;   -5,430;32774,977; 0,10144
 602,31;26077,348;   -4,180;32969,320; 0,10183
 602,89;26123,363;   -5,240;33085,328; 0,10259
 603,46;26160,238;   -5,520;33212,656; 0,10364
 604,04;26222,031;   -4,570;33373,117; 0,10471
 604,62;26284,508;   -6,020;33425,164; 0,10435
 605,19;26494,580;   -4,220;33597,594; 0,10314
 605,77;26531,418;   -5,970;33690,164; 0,10372
 606,35;26382,740;   -5,230;33557,223; 0,10445
 606,92;26455,387;   -4,780;33688,828; 0,10495
 607,50;26429,764;   -5,310;33711,457; 0,10567
 608,08;26474,549;   -4,170;33823,559; 0,10638
 608,65;26596,787;   -4,290;34059,152; 0,10739
 609,23;26555,584;   -4,870;34096,738; 0,10854
 609,81;26642,041;   -4,350;34277,516; 0,10943
 610,38;26671,105;   -5,270;34270,254; 0,10886
 610,96;26654,432;   -4,410;34241,207; 0,10876
 611,54;26669,795;   -4,680;34253,977; 0,10867
 612,11;26649,408;   -5,600;34243,945; 0,10888
 612,69;26580,488;   -3,970;34239,531; 0,10995
 613,26;26516,764;   -5,510;34271,230; 0,11139
 613,84;26426,805;   -5,420;34234,785; 0,11240
 614,42;26388,951;   -4,040;34164,582; 0,11214
 614,99;26442,025;   -5,060;34244,121; 0,11227
 615,57;26390,121;   -4,580;34165,102; 0,11212
 616,14;26336,744;   -5,900;34162,027; 0,11296
 616,72;26352,492;   -5,020;34262,133; 0,11397
 617,30;26336,883;   -4,410;34265,004; 0,11427
 617,87;26271,957;   -5,240;34228,371; 0,11487
 618,45;26155,061;   -5,030;34129,207; 0,11555
 619,02;26072,887;   -4,560;34122,363; 0,11683
 619,60;26105,727;   -5,250;34228,230; 0,11763
 620,17;26038,941;   -3,960;34245,191; 0,11896
 620,75;25848,984;   -5,530;34067,793; 0,11988
 621,33;25929,676;   -4,820;34251,566; 0,12086
 621,90;26049,066;   -5,600;34415,785; 0,12094
 622,48;26112,584;   -5,440;34503,719; 0,12099
 623,05;26300,914;   -4,660;34667,895; 0,11994
 623,63;26389,973;   -5,260;34685,348; 0,11869
 624,20;26487,443;   -4,570;34714,172; 0,11745
 624,78;26574,576;   -4,500;34814,180; 0,11727
 625,35;26635,324;   -5,190;34927,504; 0,11769
 625,93;26644,111;   -4,440;34982,516; 0,11823
 626,50;26704,146;   -5,390;35163,625; 0,11949
 627,08;26844,654;   -5,620;35330,445; 0,11927
 627,66;26791,000;   -3,540;35293,672; 0,11969
 628,23;26888,846;   -5,520;35420,715; 0,11966
 628,81;27117,250;   -4,320;35717,777; 0,11962
 629,38;27239,830;   -4,340;35890,707; 0,11976
 629,96;27447,912;   -5,660;36184,645; 0,11999
 630,53;27610,426;   -4,570;36413,039; 0,12017
 631,11;27712,232;   -5,380;36601,977; 0,12081
 631,68;27853,459;   -4,790;36891,574; 0,12203
 632,26;27974,703;   -4,440;37102,113; 0,12262
 632,83;28091,627;   -5,040;37340,867; 0,12359
 633,40;28321,754;   -4,130;37714,328; 0,12437
 633,98;28529,285;   -5,060;38057,121; 0,12513
 634,55;28628,736;   -5,030;38264,590; 0,12598
 635,13;28838,598;   -4,340;38539,355; 0,12591
 635,70;29022,053;   -6,000;38740,613; 0,12542
 636,28;29089,664;   -4,280;38797,969; 0,12505
 636,85;29252,662;   -4,850;38958,516; 0,12442
 637,43;29421,813;   -5,440;39157,723; 0,12413
 638,00;29529,426;   -3,890;39289,820; 0,12401
 638,58;29673,080;   -5,060;39545,227; 0,12471
 639,15;29851,713;   -5,150;39781,203; 0,12469
 639,73;29919,037;   -5,160;39852,758; 0,12449
 640,30;29982,986;   -5,240;39923,715; 0,12434
 640,87;30098,160;   -4,030;40052,008; 0,12407
 641,45;30090,613;   -5,750;40011,887; 0,12374
 642,02;30048,855;   -4,560;40094,496; 0,12524
 642,60;30078,109;   -4,800;40156,809; 0,12549
 643,17;30033,031;   -5,460;40088,219; 0,12540
 643,74;30036,875;   -2,760;40008,016; 0,12448
 644,32;30174,248;   -5,330;40099,887; 0,12349
 644,89;30225,141;   -4,820;40122,898; 0,12301
 645,47;30277,545;   -4,950;40157,367; 0,12263
 646,04;30395,518;   -5,480;40317,977; 0,12267
 646,61;30404,449;   -4,730;40347,398; 0,12286
 647,19;30330,443;   -4,790;40292,129; 0,12332
 647,76;30424,836;   -6,130;40377,539; 0,12289
 648,34;30498,469;   -3,960;40300,387; 0,12102
 648,91;30528,021;   -5,250;40189,719; 0,11940
 649,48;30677,336;   -4,850;40268,848; 0,11814
 650,06;30780,809;   -4,620;40402,508; 0,11811
 650,63;30832,422;   -5,940;40449,539; 0,11789
 651,20;30956,264;   -4,230;40625,840; 0,11804
 651,78;31183,207;   -4,970;40947,270; 0,11829
 652,35;31291,160;   -5,200;41057,348; 0,11795
 652,92;31442,303;   -4,790;41189,488; 0,11726
 653,50;31646,195;   -5,670;41364,961; 0,11629
 654,07;31768,629;   -4,080;41439,941; 0,11541
 654,64;32240,092;   -6,000;42016,840; 0,11501
 655,22;36312,035;   -5,340;46878,570; 0,11091
 655,79;45164,930;   -3,730;57038,809; 0,10136
 656,36;36941,102;   -4,700;47342,629; 0,10773
 656,94;33588,945;   -4,060;43331,691; 0,11060
 657,51;33345,938;   -5,060;42995,609; 0,11037
 658,08;33418,551;   -5,180;43024,039; 0,10971
 658,66;33591,324;   -4,700;43261,180; 0,10986
 659,23;33862,016;   -5,170;43563,512; 0,10940
 659,80;33979,070;   -4,470;43717,789; 0,10943
 660,38;34091,863;   -4,640;43949,930; 0,11029
 660,95;34236,105;   -5,240;44210,973; 0,11103
 661,52;34253,840;   -3,730;44213,301; 0,11083
 662,09;34335,980;   -5,850;44180,371; 0,10946
 662,67;34590,344;   -4,880;44273,133; 0,10717
 663,24;34863,977;   -5,190;44339,313; 0,10440
 663,81;34988,340;   -5,080;44335,223; 0,10281
 664,39;35207,004;   -5,020;44542,082; 0,10213
 664,96;35454,816;   -5,150;44743,910; 0,10105
 665,53;35457,250;   -5,750;44699,582; 0,10058
 666,10;35428,801;   -4,360;44636,371; 0,10032
 666,68;35483,344;   -4,840;44677,383; 0,10005
 667,25;35475,617;   -4,510;44550,891; 0,09892
 667,82;35482,813;   -5,320;44451,461; 0,09785
 668,39;35613,285;   -5,180;44593,953; 0,09765
 668,96;35695,137;   -4,650;44639,973; 0,09710
 669,54;35659,660;   -6,040;44469,773; 0,09587
 670,11;35670,965;   -4,430;44416,352; 0,09522
 670,68;35750,297;   -4,780;44463,723; 0,09471
 671,25;35805,961;   -5,570;44478,652; 0,09418
 671,83;35860,023;   -3,800;44581,484; 0,09453
 672,40;36062,965;   -5,410;44792,574; 0,09413
 672,97;36104,379;   -4,900;44823,484; 0,09393
 673,54;36179,902;   -4,720;44787,914; 0,09268
 674,11;36400,996;   -5,000;44903,023; 0,09115
 674,69;36631,418;   -4,590;45010,703; 0,08945
 675,26;36748,859;   -4,860;45044,914; 0,08839
 675,83;36880,602;   -4,630;45071,855; 0,08710
 676,40;37141,465;   -4,380;45273,266; 0,08597
 676,97;37238,879;   -5,250;45295,863; 0,08505
 677,54;37272,922;   -4,660;45220,664; 0,08393
 678,12;37475,684;   -4,580;45363,023; 0,08294
 678,69;37619,438;   -5,110;45406,855; 0,08170
 679,26;37619,961;   -4,150;45236,465; 0,08006
 679,83;37678,406;   -5,410;45265,586; 0,07967
 680,40;37793,277;   -4,440;45381,484; 0,07946
 680,97;37840,719;   -4,450;45413,125; 0,07921
 681,55;37853,883;   -5,360;45313,996; 0,07811
 682,12;37991,938;   -3,620;45432,586; 0,07767
 682,69;38120,668;   -5,410;45474,098; 0,07659
 683,26;38139,824;   -5,240;45297,328; 0,07468
 683,83;38244,977;   -4,390;45303,715; 0,07355
 684,40;38576,449;   -5,330;45555,875; 0,07221
 684,97;38828,141;   -3,820;45581,008; 0,06963
 685,54;38916,406;   -4,130;45528,105; 0,06814
 686,12;39156,527;   -4,620;45733,676; 0,06742
 686,69;39534,699;   -3,800;46054,379; 0,06629
 687,26;39710,543;   -5,200;46197,316; 0,06570
 687,83;39891,016;   -4,940;46264,078; 0,06436
 688,40;40241,199;   -5,080;46591,297; 0,06363
 688,97;40465,613;   -5,420;46730,387; 0,06251
 689,54;40608,074;   -4,000;46749,816; 0,06116
 690,11;40893,277;   -5,330;46935,566; 0,05984
 690,68;41237,031;   -5,160;47240,617; 0,05902
 691,25;41350,004;   -4,440;47282,547; 0,05822
 691,82;41290,926;   -4,590;47168,328; 0,05779
 692,40;41475,371;   -3,890;47293,277; 0,05700
 692,97;41589,453;   -5,240;47300,609; 0,05588
 693,54;41475,367;   -4,820;47094,168; 0,05517
 694,11;41480,879;   -4,520;47010,117; 0,05434
 694,68;41722,262;   -6,080;47192,020; 0,05349
 695,25;41829,496;   -4,310;47223,039; 0,05267
 695,82;41763,438;   -5,080;47185,090; 0,05300
 696,39;41792,230;   -5,120;47345,508; 0,05418
 696,96;41982,555;   -4,200;47605,391; 0,05458
 697,53;41837,117;   -5,090;47324,398; 0,05352
 698,10;41856,699;   -4,730;47027,680; 0,05058
 698,67;42097,766;   -4,650;47049,699; 0,04829
 699,24;42335,516;   -4,280;47001,621; 0,04540
 699,81;42283,500;   -4,010;46769,609; 0,04379
 700,38;42222,742;   -4,910;46754,332; 0,04427
 700,95;42366,535;   -4,710;46908,402; 0,04422
 701,52;42403,668;   -4,250;46890,652; 0,04368
 702,09;42240,582;   -4,850;46664,652; 0,04325
 702,66;42222,406;   -4,340;46532,473; 0,04221
 703,23;42349,148;   -4,810;46549,199; 0,04106
 703,80;42457,590;   -4,930;46462,750; 0,03915
 704,37;42433,105;   -4,310;46295,453; 0,03783
 704,94;42546,898;   -4,470;46233,340; 0,03608
 705,51;42770,668;   -4,040;46296,672; 0,03440
 706,08;42776,863;   -4,910;46194,391; 0,03338
 706,65;42680,395;   -5,240;46109,563; 0,03356
 707,22;42659,160;   -4,260;46198,891; 0,03462
 707,79;42618,883;   -5,350;46172,941; 0,03478
 708,36;42382,734;   -4,180;45839,691; 0,03405
 708,93;42145,988;   -4,580;45558,953; 0,03381
 709,50;42267,160;   -4,850;45566,453; 0,03264
 710,06;42415,855;   -3,850;45614,742; 0,03157
 710,63;42332,648;   -4,630;45461,051; 0,03096
 711,20;42304,891;   -5,130;45408,242; 0,03074
 711,77;42530,762;   -4,530;45642,063; 0,03066
 712,34;42622,414;   -5,340;45635,813; 0,02966
 712,91;42509,980;   -3,400;45492,965; 0,02945
 713,48;42570,070;   -4,880;45518,953; 0,02908
 714,05;42796,023;   -5,230;45657,063; 0,02810
 714,62;42749,430;   -4,650;45445,512; 0,02656
 715,19;42512,152;   -5,380;45200,715; 0,02663
 715,76;42512,484;   -5,340;45160,285; 0,02624
 716,33;42605,258;   -4,710;45262,203; 0,02627
 716,89;42518,441;   -5,030;45051,805; 0,02513
 717,46;42302,754;   -4,050;44717,945; 0,02411
 718,03;42254,266;   -5,280;44700,336; 0,02444
 718,60;42310,430;   -4,630;44761,816; 0,02446
 719,17;42286,141;   -5,390;44622,633; 0,02335
 719,74;42173,176;   -4,940;44441,066; 0,02275
 720,31;42301,098;   -4,780;44641,434; 0,02338
 720,88;42539,289;   -4,990;44834,996; 0,02282
 721,44;42512,875;   -4,960;44691,637; 0,02170
 722,01;42404,188;   -4,340;44506,426; 0,02101
 722,58;42509,320;   -5,920;44642,336; 0,02126
 723,15;42744,953;   -4,140;44861,176; 0,02098
 723,72;42737,008;   -5,220;44829,938; 0,02076
 724,29;42708,840;   -4,510;44744,234; 0,02022
 724,85;42948,582;   -4,330;44943,355; 0,01971
 725,42;43363,516;   -5,400;45243,516; 0,01843
 725,99;43449,059;   -4,760;45269,438; 0,01782
 726,56;43449,590;   -4,870;45279,848; 0,01792
 727,13;43615,305;   -4,970;45481,457; 0,01819
 727,69;43908,266;   -3,980;45801,445; 0,01833
 728,26;43855,520;   -5,440;45735,508; 0,01823
 728,83;43618,473;   -5,080;45521,527; 0,01854
 729,40;43622,355;   -4,390;45501,168; 0,01831
 729,97;43881,500;   -5,460;45615,188; 0,01683
 730,53;43811,672;   -4,290;45363,277; 0,01511
 731,10;43565,477;   -4,890;45073,047; 0,01477
 731,67;43484,090;   -4,980;45081,887; 0,01567
 732,24;43566,410;   -4,210;45258,648; 0,01655
 732,81;43523,914;   -4,870;45334,648; 0,01770
 733,37;43344,738;   -4,520;45271,977; 0,01889
 733,94;43492,641;   -4,830;45401,688; 0,01865
 734,51;43686,754;   -4,750;45561,449; 0,01825
 735,08;43675,086;   -4,130;45466,047; 0,01745
 735,64;43585,188;   -5,570;45275,109; 0,01652
 736,21;43646,852;   -4,710;45235,418; 0,01552
 736,78;43945,863;   -4,950;45371,359; 0,01386
 737,35;44056,680;   -5,290;45378,898; 0,01284
 737,91;43882,770;   -3,900;45154,527; 0,01241
 738,48;43849,223;   -5,550;45107,230; 0,01228
 739,05;44131,988;   -4,560;45341,961; 0,01175
 739,61;44250,832;   -4,160;45417,699; 0,01130
 740,18;44131,691;   -5,430;45187,059; 0,01026
 740,75;44106,207;   -3,390;45132,398; 0,00999
 741,32;44286,129;   -4,840;45341,898; 0,01023
 741,88;44462,473;   -4,600;45529,352; 0,01030
 742,45;44362,414;   -4,570;45367,422; 0,00973
 743,02;44222,656;   -5,850;45191,512; 0,00941
 743,58;44434,320;   -4,680;45360,379; 0,00896
 744,15;44733,723;   -4,550;45625,910; 0,00858
 744,72;44724,797;   -5,770;45518,813; 0,00764
 745,28;44598,801;   -4,240;45288,949; 0,00667
 745,85;44669,313;   -5,490;45341,262; 0,00648
 746,42;44793,715;   -4,830;45547,441; 0,00725
 746,98;44610,051;   -4,910;45424,242; 0,00785
 747,55;44112,754;   -5,670;45051,871; 0,00915
 748,12;43839,797;   -4,840;44872,871; 0,01011
 748,68;44031,977;   -5,270;44944,203; 0,00890
 749,25;44186,250;   -4,670;44976,910; 0,00770
 749,82;44030,914;   -4,490;44625,941; 0,00583
 750,38;43868,258;   -5,110;44383,660; 0,00507
 750,95;43898,879;   -4,190;44396,613; 0,00490
 751,52;43932,492;   -4,330;44413,320; 0,00473
 752,08;43699,746;   -4,680;44151,262; 0,00446
 752,65;43424,270;   -4,410;43995,281; 0,00567
 753,21;43403,824;   -5,090;44068,992; 0,00660
 753,78;43517,094;   -4,110;44158,473; 0,00635
 754,35;43375,418;   -4,870;43897,793; 0,00520
 754,91;43155,980;   -5,530;43631,031; 0,00475
 755,48;43131,785;   -4,440;43607,383; 0,00476
 756,04;43310,449;   -4,440;43816,672; 0,00505
 756,61;43373,820;   -4,820;43948,234; 0,00571
 757,18;43141,574;   -4,480;43811,043; 0,00669
 757,74;42943,566;   -5,160;43723,965; 0,00782
 758,31;42905,641;   -3,880;43821,375; 0,00917
 758,87;43076,313;   -4,910;44011,555; 0,00933
 759,44;43062,336;   -4,620;43935,973; 0,00872
 760,00;42935,020;   -4,940;43827,336; 0,00893
 760,57;43076,070;   -4,660;43943,043; 0,00865
 761,14;43269,605;   -3,700;44048,195; 0,00774
 761,70;43287,426;   -5,100;43903,156; 0,00613
 762,27;43245,801;   -5,000;43671,926; 0,00426
 762,83;43372,363;   -3,740;43715,625; 0,00342
 763,40;43728,367;   -5,670;44093,086; 0,00361
 763,96;43992,348;   -4,290;44317,773; 0,00320
 764,53;44084,352;   -4,530;44327,676; 0,00239
 765,09;43934,055;   -4,720;44170,605; 0,00233
 765,66;44047,180;   -4,550;44292,895; 0,00242
 766,22;44326,613;   -5,090;44553,754; 0,00222
 766,79;44252,496;   -4,510;44424,496; 0,00168
 767,35;44061,789;   -4,150;44262,164; 0,00197
 767,92;43978,699;   -5,300;44281,918; 0,00298
 768,48;44152,613;   -3,780;44523,477; 0,00363
 769,05;44039,188;   -5,090;44412,047; 0,00366
 769,61;43669,730;   -4,310;44013,016; 0,00340
 770,18;43423,563;   -4,500;43785,316; 0,00360
 770,74;43453,684;   -5,580;43820,207; 0,00365
 771,31;43561,949;   -4,470;43960,328; 0,00395
 771,87;43436,063;   -5,100;43837,035; 0,00399
 772,44;43341,906;   -4,640;43709,977; 0,00367
 773,00;43376,578;   -4,690;43732,086; 0,00354
 773,57;43725,969;   -4,910;44037,219; 0,00308
 774,13;44037,195;   -4,300;44132,809; 0,00094
 774,70;44168,016;   -4,250;44073,137;-0,00093
 775,26;44095,500;   -5,220;43972,996;-0,00121
 775,82;44161,023;   -3,830;44125,020;-0,00035
 776,39;44382,375;   -4,760;44465,590; 0,00081
 776,95;44402,137;   -4,940;44485,438; 0,00081
 777,52;44199,711;   -4,500;44251,598; 0,00051
 778,08;44038,953;   -5,100;44008,227;-0,00030
 778,65;44093,266;   -4,320;44061,297;-0,00031
 779,21;44292,711;   -5,210;44227,598;-0,00064
 779,77;44177,855;   -4,760;44118,109;-0,00059
 780,34;43973,117;   -3,740;43853,449;-0,00118
 780,90;44010,121;   -5,100;43935,301;-0,00074
 781,47;44120,684;   -4,140;44093,020;-0,00027
 782,03;44107,285;   -4,900;44144,898; 0,00037
 782,59;43882,438;   -5,010;43958,449; 0,00075
 783,16;43768,871;   -3,990;43855,578; 0,00086
 783,72;43852,176;   -5,250;43965,328; 0,00112
 784,29;44028,027;   -5,160;44116,891; 0,00088
 784,85;44190,781;   -4,310;44150,520;-0,00040
 785,41;44036,992;   -5,320;43955,801;-0,00080
 785,98;43799,117;   -4,140;43788,039;-0,00011
 786,54;43833,078;   -4,970;43853,652; 0,00020
 787,10;43996,352;   -4,080;43992,801;-0,00004
 787,67;43977,566;   -3,890;43984,859; 0,00007
 788,23;43737,770;   -4,960;43796,352; 0,00058
 788,79;43592,102;   -4,280;43755,332; 0,00162
 789,36;43610,844;   -5,070;43770,563; 0,00159
 789,92;43692,238;   -4,730;43826,422; 0,00133
 790,48;43494,742;   -4,480;43590,531; 0,00096
 791,05;43219,355;   -5,270;43317,391; 0,00098
 791,61;43061,488;   -4,190;43303,363; 0,00243
 792,17;43219,059;   -4,950;43526,652; 0,00308
 792,74;43267,984;   -4,720;43612,320; 0,00344
 793,30;43163,316;   -4,240;43416,203; 0,00254
 793,86;43041,609;   -4,790;43128,422; 0,00087
 794,43;42926,391;   -4,580;42936,352; 0,00010
 794,99;42995,285;   -4,570;42906,781;-0,00089
 795,55;42907,520;   -4,500;42758,512;-0,00151
 796,11;42665,020;   -4,300;42390,145;-0,00281
 796,68;42532,645;   -4,700;42131,152;-0,00412
 797,24;42621,188;   -5,260;42129,332;-0,00504
 797,80;42881,469;   -3,900;42221,762;-0,00673
 798,36;42854,914;   -4,930;42097,352;-0,00774
 798,93;42575,637;   -3,670;41820,992;-0,00777
 799,49;42160,098;   -5,880;41567,383;-0,00615
 800,05;41953,102;   -4,920;41466,355;-0,00507
 800,61;41886,594;   -4,410;41498,113;-0,00405
 801,18;41743,309;   -4,290;41372,324;-0,00388
 801,74;41365,742;   -3,610;41042,703;-0,00340
 802,30;41142,484;   -4,560;40871,414;-0,00287
 802,86;41111,016;   -4,900;40957,203;-0,00163
 803,43;41265,730;   -4,360;41145,043;-0,00127
 803,99;41238,574;   -5,310;41015,273;-0,00236
 804,55;41042,816;   -4,370;40713,953;-0,00349
 805,11;40817,238;   -4,390;40473,996;-0,00367
 805,68;40919,512;   -4,490;40579,887;-0,00362
 806,24;40992,645;   -4,470;40646,766;-0,00368
 806,80;40770,598;   -4,750;40330,746;-0,00471
 807,36;40428,941;   -3,860;39958,715;-0,00508
 807,92;40191,484;   -4,020;39815,426;-0,00408
 808,48;40138,098;   -5,780;39892,594;-0,00266
 809,05;40144,711;   -4,590;40010,098;-0,00146
 809,61;40096,703;   -5,120;39951,457;-0,00158
 810,17;39838,855;   -4,880;39706,406;-0,00145
 810,73;39658,668;   -4,520;39512,086;-0,00161
 811,29;39667,082;   -5,680;39438,875;-0,00251
 811,85;39762,336;   -4,880;39408,188;-0,00388
 812,42;39768,117;   -4,170;39310,637;-0,00502
 812,98;39581,223;   -5,360;39064,105;-0,00571
 813,54;39442,703;   -3,660;38981,586;-0,00511
 814,10;39307,508;   -5,530;38966,508;-0,00378
 814,66;39370,629;   -4,750;39125,918;-0,00271
 815,22;39347,523;   -4,650;39069,176;-0,00308
 815,78;39239,707;   -4,910;38863,539;-0,00418
 816,35;39176,617;   -3,340;38825,988;-0,00390
 816,91;39200,121;   -5,620;38974,770;-0,00250
 817,47;39237,684;   -4,510;39097,059;-0,00156
 818,03;39292,020;   -4,800;39148,246;-0,00159
 818,59;39161,820;   -5,350;38937,488;-0,00249
 819,15;39042,445;   -4,450;38758,199;-0,00317
 819,71;38979,996;   -4,460;38674,297;-0,00342
 820,27;39151,699;   -5,000;38903,500;-0,00276
 820,83;39349,273;   -4,280;39150,098;-0,00220
 821,39;39218,484;   -4,800;39105,078;-0,00126
 821,96;39083,059;   -4,430;38979,898;-0,00115
 822,52;39118,852;   -4,570;38994,570;-0,00138
 823,08;39261,547;   -5,190;39103,969;-0,00175
 823,64;39508,398;   -3,870;39252,871;-0,00282
 824,20;39469,660;   -5,220;39152,188;-0,00351
 824,76;39457,125;   -4,260;39005,199;-0,00500
 825,32;39585,906;   -4,090;39127,320;-0,00506
 825,88;39868,719;   -4,560;39411,840;-0,00500
 826,44;40134,113;   -3,960;39730,328;-0,00439
 827,00;40336,938;   -4,810;39939,801;-0,00430
 827,56;40284,777;   -4,690;39915,949;-0,00399
 828,12;40348,031;   -4,330;39968,129;-0,00411
 828,68;40582,785;   -4,950;40175,332;-0,00438
 829,24;40805,797;   -4,740;40359,270;-0,00478
 829,80;40932,441;   -4,980;40395,391;-0,00574
 830,36;40734,125;   -4,640;40181,391;-0,00593
 830,92;40561,047;   -3,850;39994,820;-0,00610
 831,48;40604,621;   -5,280;40056,352;-0,00590
 832,04;40720,465;   -4,470;40149,242;-0,00613
 832,60;40793,367;   -5,310;40157,109;-0,00683
 833,16;40676,898;   -5,060;39954,160;-0,00778
 833,72;40465,023;   -3,660;39717,590;-0,00810
 834,28;40378,465;   -4,770;39643,391;-0,00798
 834,84;40314,469;   -4,820;39687,934;-0,00680
 835,40;40209,000;   -4,350;39684,320;-0,00570
 835,96;40055,246;   -4,910;39612,492;-0,00483
 836,52;39677,789;   -4,000;39311,863;-0,00402
 837,08;39442,281;   -4,970;39091,824;-0,00388
 837,64;39429,164;   -4,610;39043,941;-0,00426
 838,20;39526,875;   -3,650;39143,484;-0,00423
 838,76;39626,090;   -4,990;39199,363;-0,00470
 839,32;39559,152;   -4,610;39081,012;-0,00528
 839,88;39417,875;   -4,430;38925,523;-0,00546
 840,43;39371,270;   -4,730;38906,332;-0,00516
 840,99;39497,609;   -2,400;39099,922;-0,00439
 841,55;39638,105;   -4,610;39246,422;-0,00431
 842,11;39700,258;   -3,990;39315,734;-0,00423
 842,67;39663,070;   -4,500;39189,953;-0,00521
 843,23;39567,773;   -5,090;39081,254;-0,00537
 843,79;39642,926;   -4,170;39226,004;-0,00459
 844,35;39776,078;   -4,850;39549,715;-0,00248
 844,91;39732,184;   -4,500;39655,695;-0,00084
 845,47;39606,523;   -4,250;39610,195; 0,00004
 846,03;39368,066;   -4,860;39431,414; 0,00070
 846,58;39192,691;   -4,660;39294,465; 0,00113
 847,14;39271,523;   -4,930;39371,125; 0,00110
 847,70;39408,926;   -4,830;39477,453; 0,00075
 848,26;39244,422;   -3,630;39270,996; 0,00029
 848,82;39111,645;   -4,830;39021,227;-0,00101
 849,38;38964,605;   -4,990;38809,547;-0,00173
 849,94;38966,758;   -4,380;38719,934;-0,00276
 850,49;39075,051;   -5,320;38824,457;-0,00279
 851,05;39068,957;   -4,440;38821,246;-0,00276
 851,61;38923,688;   -4,610;38603,824;-0,00358
 852,17;38649,883;   -4,110;38331,895;-0,00359
 852,73;38559,543;   -4,440;38212,508;-0,00393
 853,29;38520,578;   -4,420;38212,527;-0,00349
 853,84;38473,609;   -4,200;38221,516;-0,00285
 854,40;38483,895;   -5,080;38263,918;-0,00249
 854,96;38250,645;   -5,090;38056,777;-0,00221
 855,52;38088,281;   -4,570;37875,656;-0,00243
 856,08;38022,672;   -5,070;37850,285;-0,00197
 856,63;38029,254;   -4,270;37919,168;-0,00126
 857,19;37989,809;   -5,160;37960,629;-0,00033
 857,75;37890,910;   -5,010;37883,336;-0,00009
 858,31;37594,063;   -4,640;37587,566;-0,00008
 858,86;37392,586;   -4,940;37415,016; 0,00026
 859,42;37351,699;   -4,670;37322,777;-0,00034
 859,98;37458,332;   -5,430;37360,828;-0,00113
 860,54;37467,516;   -5,000;37260,188;-0,00241
 861,10;37371,129;   -4,180;37110,629;-0,00304
 861,65;37279,984;   -5,130;36953,477;-0,00382
 862,21;37182,965;   -4,670;36820,777;-0,00425
 862,77;37318,918;   -4,100;36845,887;-0,00554
 863,32;37607,930;   -4,740;37102,738;-0,00587
 863,88;37728,785;   -4,260;37106,898;-0,00722
 864,44;37555,137;   -4,730;36914,570;-0,00747
 865,00;37348,602;   -4,860;36799,109;-0,00644
 865,55;37237,285;   -4,290;36795,418;-0,00518
 866,11;37278,027;   -4,290;36979,469;-0,00349
 866,67;37366,570;   -4,510;37180,840;-0,00216
 867,23;37389,711;   -5,190;37323,730;-0,00077
 867,78;37336,824;   -4,210;37376,738; 0,00046
 868,34;37203,348;   -3,960;37302,148; 0,00115
 868,90;37220,172;   -4,610;37316,031; 0,00112
 869,45;37410,605;   -4,640;37453,809; 0,00050
 870,01;37570,078;   -4,310;37489,371;-0,00093
 870,57;37690,992;   -4,940;37552,629;-0,00160
 871,12;37636,773;   -3,750;37434,219;-0,00234
 871,68;37441,625;   -5,520;37199,102;-0,00282
 872,24;37339,359;   -5,010;37116,941;-0,00259
 872,79;37463,711;   -4,530;37245,590;-0,00254
 873,35;37510,285;   -5,120;37269,383;-0,00280
 873,91;37389,430;   -3,860;37098,762;-0,00339
 874,46;37204,742;   -5,190;36836,543;-0,00432
 875,02;36971,324;   -4,990;36586,680;-0,00454
 875,57;36903,637;   -4,950;36576,000;-0,00387
 876,13;36959,172;   -5,190;36698,223;-0,00308
 876,69;37087,613;   -4,580;36875,363;-0,00249
 877,24;36861,676;   -4,190;36695,191;-0,00197
 877,80;36654,129;   -4,900;36493,492;-0,00191
 878,36;36453,781;   -4,340;36309,523;-0,00172
 878,91;36372,887;   -4,750;36246,164;-0,00152
 879,47;36387,168;   -4,080;36310,641;-0,00091
 880,02;36469,273;   -4,570;36400,063;-0,00082
 880,58;36353,945;   -5,350;36223,031;-0,00157
 881,14;36175,066;   -4,480;35978,895;-0,00236
 881,69;35925,672;   -4,160;35647,352;-0,00338
 882,25;35708,133;   -4,290;35460,453;-0,00302
 882,80;35581,348;   -4,310;35397,234;-0,00225
 883,36;35522,109;   -4,870;35356,574;-0,00203
 883,91;35330,234;   -4,660;35199,953;-0,00160
 884,47;34957,734;   -3,880;34918,445;-0,00049
 885,03;34615,270;   -4,140;34625,535; 0,00013
 885,58;34436,293;   -3,990;34537,844; 0,00128
 886,14;34329,074;   -5,310;34454,355; 0,00158
 886,69;34416,086;   -3,680;34526,453; 0,00139
 887,25;34383,109;   -4,370;34405,965; 0,00029
 887,80;34259,855;   -5,070;34153,164;-0,00135
 888,36;34198,527;   -4,310;34007,426;-0,00243
 888,91;34048,949;   -4,640;33732,414;-0,00406
 889,47;34061,645;   -4,070;33728,824;-0,00426
 890,02;34196,945;   -4,590;33819,535;-0,00482
 890,58;34266,430;   -5,330;33792,727;-0,00604
 891,13;34132,000;   -3,970;33558,695;-0,00736
 891,69;33961,953;   -4,510;33399,605;-0,00725
 892,24;33707,668;   -4,690;33176,117;-0,00690
 892,80;33609,492;   -4,450;33184,707;-0,00552
 893,35;33548,664;   -4,390;33180,527;-0,00479
 893,91;33442,086;   -3,800;33179,734;-0,00342
 894,46;33165,012;   -4,560;32995,938;-0,00222
 895,02;32923,324;   -4,780;32760,246;-0,00216
 895,57;32709,586;   -4,850;32567,287;-0,00189
 896,13;32642,988;   -4,630;32540,166;-0,00137
 896,68;32601,393;   -4,210;32488,217;-0,00151
 897,23;32482,145;   -4,700;32410,326;-0,00096
 897,79;32338,078;   -4,920;32228,707;-0,00147
 898,34;32060,682;   -4,810;31909,666;-0,00205
 898,90;31934,494;   -5,320;31757,758;-0,00241
 899,45;31869,916;   -4,360;31695,348;-0,00239
 900,01;31840,760;   -3,770;31632,428;-0,00285
 900,56;31863,113;   -4,700;31618,568;-0,00335
 901,11;31725,785;   -4,370;31434,207;-0,00401
 901,67;31566,789;   -4,110;31252,547;-0,00434
 902,22;31486,502;   -4,910;31134,918;-0,00488
 902,78;31367,895;   -4,060;31051,299;-0,00441
 903,33;31316,947;   -4,710;31034,447;-0,00393
 903,89;31316,512;   -4,310;31073,219;-0,00339
 904,44;31300,395;   -4,610;31060,219;-0,00334
 904,99;31212,797;   -4,410;30933,078;-0,00391
 905,55;31070,730;   -4,310;30722,428;-0,00490
 906,10;30966,893;   -4,800;30588,338;-0,00534
 906,65;30956,076;   -4,770;30542,148;-0,00585
 907,21;30948,889;   -4,730;30531,250;-0,00590
 907,76;30851,271;   -4,920;30501,340;-0,00495
 908,31;30722,635;   -4,120;30412,029;-0,00441
 908,87;30506,428;   -4,890;30241,189;-0,00379
 909,42;30333,691;   -3,830;30060,100;-0,00393
 909,97;30188,135;   -4,090;29868,629;-0,00462
 910,53;30162,857;   -5,190;29793,539;-0,00535
 911,08;30054,510;   -3,960;29690,551;-0,00529
 911,63;29908,480;   -4,680;29533,680;-0,00548
 912,19;29674,471;   -5,110;29286,900;-0,00571
 912,74;29485,250;   -4,560;29111,539;-0,00554
 913,29;29364,260;   -5,500;28993,609;-0,00552
 913,85;29218,641;   -3,850;28901,369;-0,00474
 914,40;29203,641;   -4,500;28902,439;-0,00450
 914,95;29035,080;   -5,470;28734,910;-0,00451
 915,51;28886,801;   -4,640;28612,240;-0,00415
 916,06;28640,080;   -5,160;28384,869;-0,00389
 916,61;28473,230;   -3,950;28176,480;-0,00455
 917,16;28341,830;   -4,220;28031,221;-0,00479
 917,72;28312,689;   -4,720;28015,891;-0,00458
 918,27;28311,289;   -3,910;28025,990;-0,00440
 918,82;28154,529;   -4,420;27914,930;-0,00371
 919,37;28002,869;   -4,300;27807,381;-0,00304
 919,93;27827,520;   -3,970;27681,260;-0,00229
 920,48;27547,480;   -4,440;27485,289;-0,00098
 921,03;27417,250;   -4,460;27426,539; 0,00015
 921,58;27318,211;   -4,300;27350,740; 0,00052
 922,14;27177,689;   -4,200;27274,551; 0,00154
 922,69;27008,811;   -4,730;27158,070; 0,00239
 923,24;26806,859;   -5,250;26962,850; 0,00252
 923,79;26637,471;   -4,830;26741,020; 0,00168
 924,35;26451,500;   -4,120;26563,211; 0,00183
 924,90;26401,480;   -5,740;26544,119; 0,00234
 925,45;26251,480;   -4,640;26439,910; 0,00311
 926,00;26232,480;   -4,980;26389,830; 0,00260
 926,55;26111,211;   -3,500;26298,760; 0,00311
 927,11;25966,590;   -4,580;26152,730; 0,00310
 927,66;25797,811;   -4,700;25921,330; 0,00207
 928,21;25631,900;   -3,900;25694,420; 0,00106
 928,76;25546,689;   -4,960;25601,449; 0,00093
 929,31;25409,359;   -4,910;25444,760; 0,00060
 929,86;25193,850;   -4,180;25277,270; 0,00144
 930,42;24982,449;   -4,970;25113,920; 0,00228
 930,97;24715,391;   -4,340;24868,381; 0,00268
 931,52;24428,350;   -4,360;24612,051; 0,00325
 932,07;24196,600;   -4,860;24425,311; 0,00408
 932,62;24080,000;   -4,490;24308,270; 0,00410
 933,17;23889,650;   -4,920;24117,480; 0,00412
 933,72;23685,471;   -4,360;23951,730; 0,00485
 934,28;23426,180;   -4,720;23677,189; 0,00463
 934,83;23239,180;   -5,190;23454,779; 0,00401
 935,38;23040,961;   -4,480;23256,820; 0,00405
 935,93;22940,061;   -4,630;23148,150; 0,00392
 936,48;22843,840;   -4,230;23054,400; 0,00398
 937,03;22732,391;   -4,540;22934,850; 0,00385
 937,58;22571,289;   -4,570;22812,199; 0,00461
 938,13;22455,510;   -4,070;22671,199; 0,00415
 938,68;22323,020;   -4,750;22492,369; 0,00328
 939,23;22193,561;   -4,310;22345,631; 0,00297
 939,79;22086,740;   -4,320;22146,680; 0,00118
 940,34;22010,230;   -5,430;22045,430; 0,00069
 940,89;21896,359;   -4,260;21928,240; 0,00063
 941,44;21759,221;   -4,410;21783,279; 0,00048
 941,99;21493,619;   -4,930;21561,561; 0,00137
 942,54;21233,789;   -4,360;21290,160; 0,00115
 943,09;21085,820;   -4,660;21131,471; 0,00094
 943,64;20929,539;   -4,910;20950,119; 0,00043
 944,19;20756,170;   -4,060;20752,760;-0,00007
 944,74;20570,199;   -5,100;20561,250;-0,00019
 945,29;20307,689;   -3,800;20290,320;-0,00037
 945,84;20070,539;   -5,180;20059,320;-0,00024
 946,39;19828,080;   -4,440;19882,869; 0,00120
 946,94;19498,721;   -4,220;19670,850; 0,00382
 947,49;19261,760;   -4,760;19503,750; 0,00542
 948,04;19083,100;   -3,680;19361,811; 0,00630
 948,59;18948,109;   -4,570;19167,250; 0,00499
 949,14;18728,699;   -4,630;18933,641; 0,00473
 949,69;18453,641;   -4,250;18633,590; 0,00421
 950,24;18166,830;   -4,900;18357,859; 0,00454
 950,79;17927,750;   -3,910;18130,680; 0,00489
 951,34;17718,240;   -4,150;17944,619; 0,00551
 951,89;17485,779;   -4,920;17713,949; 0,00563
 952,44;17265,961;   -4,230;17548,520; 0,00705
 952,99;17045,020;   -3,780;17346,539; 0,00761
 953,54;16780,141;   -4,270;17077,420; 0,00762
 954,09;16587,631;   -4,730;16885,230; 0,00772
 954,64;16384,699;   -5,190;16639,080; 0,00669
 955,19;16184,020;   -3,910;16427,561; 0,00649
 955,74;16036,500;   -4,810;16247,050; 0,00566
 956,28;15890,460;   -4,020;16070,740; 0,00490
 956,83;15740,210;   -4,410;15937,240; 0,00540
 957,38;15542,430;   -3,550;15737,380; 0,00541
 957,93;15354,590;   -3,990;15571,300; 0,00609
 958,48;15176,960;   -4,650;15409,890; 0,00661
 959,03;15060,510;   -4,930;15301,920; 0,00690
 959,58;14902,930;   -3,820;15166,340; 0,00761
 960,13;14766,960;   -5,060;15041,950; 0,00801
 960,68;14679,120;   -4,900;14957,980; 0,00817
 961,23;14540,200;   -4,630;14846,260; 0,00904
 961,77;14379,590;   -4,830;14687,220; 0,00919
 962,32;14199,390;   -4,650;14521,860; 0,00975
 962,87;14064,520;   -5,250;14398,310; 0,01018
 963,42;13898,370;   -3,850;14246,010; 0,01073
 963,97;13781,910;   -4,630;14135,620; 0,01100
 964,52;13622,390;   -4,560;14002,170; 0,01194
 965,07;13485,710;   -3,860;13845,810; 0,01144
 965,61;13323,410;   -4,830;13706,870; 0,01232
 966,16;13150,860;   -4,330;13548,370; 0,01293
 966,71;13007,440;   -4,460;13410,100; 0,01324
 967,26;12894,370;   -4,880;13301,880; 0,01351
 967,81;12774,040;   -4,550;13204,260; 0,01438
 968,36;12705,690;   -4,810;13126,930; 0,01416
 968,90;12626,320;   -4,510;13047,110; 0,01423
 969,45;12558,660;   -4,040;12970,060; 0,01399
 970,00;12482,170;   -4,570;12890,410; 0,01397
 970,55;12420,940;   -3,790;12828,050; 0,01400
 971,10;12369,000;   -4,250;12755,890; 0,01337
 971,64;12326,190;   -4,660;12712,040; 0,01338
 972,19;12300,470;   -4,210;12687,610; 0,01345
 972,74;12271,010;   -4,110;12678,870; 0,01420
 973,29;12192,710;   -4,240;12592,430; 0,01400
 973,84;12138,540;   -4,190;12523,300; 0,01355
 974,38;12058,740;   -4,350;12450,940; 0,01390
 974,93;11990,120;   -3,890;12384,120; 0,01404
 975,48;11931,670;   -4,220;12307,820; 0,01348
 976,03;11879,300;   -4,300;12244,730; 0,01315
 976,57;11786,150;   -4,700;12135,550; 0,01268
 977,12;11684,230;   -4,400;12037,190; 0,01292
 977,67;11565,420;   -4,610;11915,300; 0,01294
 978,21;11473,380;   -4,500;11801,660; 0,01225
 978,76;11357,560;   -4,840;11691,970; 0,01260
 979,31;11285,190;   -4,120;11618,750; 0,01265
 979,86;11181,700;   -4,890;11522,130; 0,01302
 980,40;11124,840;   -3,890;11466,060; 0,01312
 980,95;10998,110;   -4,180;11353,560; 0,01381
 981,50;10918,800;   -4,420;11276,210; 0,01398
 982,04;10845,720;   -4,240;11159,700; 0,01239
 982,59;10801,890;   -4,610;11085,870; 0,01127
 983,14;10744,220;   -4,370;10990,190; 0,00983
 983,68;10673,960;   -5,100;10922,850; 0,01001
 984,23;10636,180;   -4,270;10855,690; 0,00887
 984,78;10581,340;   -3,690;10808,370; 0,00922
 985,32;10488,180;   -4,770;10717,740; 0,00940
 985,87;10428,570;   -4,940;10647,060; 0,00900
 986,42;10346,890;   -3,900;10561,550; 0,00891
 986,96;10303,510;   -4,780;10498,500; 0,00814
 987,51;10261,890;   -4,250;10422,350; 0,00674
 988,06;10213,820;   -4,330;10361,530; 0,00623
 988,60;10151,410;   -5,150;10262,480; 0,00472
 989,15;10146,000;   -4,010;10213,350; 0,00287
 989,70;10127,040;   -4,960;10166,080; 0,00167
 990,24;10069,310;   -3,940;10076,810; 0,00032
 990,79; 9962,140;   -4,060; 9949,990;-0,00053
 991,33; 9869,320;   -5,450; 9844,620;-0,00109
 991,88; 9800,000;   -4,420; 9778,350;-0,00096
 992,43; 9740,070;   -4,540; 9728,310;-0,00052
 992,97; 9671,970;   -4,310; 9687,260; 0,00069
 993,52; 9563,060;   -3,940; 9609,520; 0,00210
 994,06; 9480,360;   -5,080; 9540,130; 0,00273
 994,61; 9393,370;   -4,400; 9475,860; 0,00380
 995,16; 9287,970;   -4,720; 9392,180; 0,00484
 995,70; 9191,090;   -4,770; 9315,440; 0,00583
 996,25; 9107,060;   -4,650; 9238,880; 0,00624
 996,79; 9043,910;   -4,720; 9173,310; 0,00617
 997,34; 8970,810;   -4,320; 9107,790; 0,00658
 997,88; 8931,580;   -4,650; 9060,840; 0,00624
 998,43; 8878,720;   -4,700; 8994,340; 0,00562
 998,97; 8804,450;   -4,080; 8915,670; 0,00545
 999,52; 8733,670;   -4,520; 8847,540; 0,00562
1000,06; 8645,950;   -4,050; 8774,280; 0,00640
1000,61; 8587,610;   -4,160; 8728,150; 0,00705
1001,15; 8539,700;   -4,130; 8672,090; 0,00668
1001,70; 8497,700;   -4,280; 8622,270; 0,00632
1002,24; 8444,220;   -4,500; 8561,570; 0,00599
1002,79; 8398,860;   -4,660; 8487,130; 0,00454
1003,33; 8327,470;   -4,040; 8402,780; 0,00391
1003,88; 8286,260;   -4,350; 8342,400; 0,00293
1004,42; 8243,330;   -3,880; 8289,650; 0,00243
1004,97; 8185,200;   -4,970; 8230,250; 0,00238
1005,51; 8144,770;   -4,030; 8175,060; 0,00161
1006,06; 8095,330;   -4,510; 8121,840; 0,00142
1006,60; 8054,720;   -4,190; 8077,710; 0,00124
1007,15; 8003,920;   -3,750; 8047,010; 0,00233
1007,69; 7977,020;   -4,490; 7996,290; 0,00105
1008,24; 7916,480;   -4,420; 7956,180; 0,00217
1008,78; 7864,820;   -3,620; 7910,450; 0,00251
1009,33; 7799,930;   -4,890; 7869,060; 0,00383
1009,87; 7760,750;   -4,100; 7838,230; 0,00431
1010,41; 7714,210;   -4,590; 7788,290; 0,00415
1010,96; 7657,940;   -3,460; 7745,480; 0,00493
1011,50; 7594,280;   -4,300; 7695,330; 0,00574
1012,05; 7546,160;   -4,090; 7645,660; 0,00569
1012,59; 7504,470;   -4,640; 7593,520; 0,00512
1013,13; 7434,920;   -4,200; 7519,840; 0,00493
1013,68; 7382,480;   -4,920; 7466,020; 0,00488
1014,22; 7311,110;   -4,820; 7406,390; 0,00562
1014,77; 7258,530;   -4,460; 7342,660; 0,00500
1015,31; 7195,730;   -4,330; 7281,480; 0,00514
1015,85; 7143,160;   -4,440; 7215,310; 0,00436
1016,40; 7065,930;   -4,710; 7130,170; 0,00393
1016,94; 6997,330;   -4,170; 7057,450; 0,00371
1017,48; 6931,350;   -4,290; 6985,950; 0,00341
1018,03; 6879,110;   -4,810; 6939,550; 0,00380
1018,57; 6823,720;   -3,810; 6881,320; 0,00365
1019,11; 6755,760;   -3,900; 6838,640; 0,00529
1019,66; 6700,460;   -4,200; 6788,860; 0,00569
1020,20; 6651,390;   -4,190; 6738,120; 0,00562
1020,74; 6571,740;   -4,880; 6659,200; 0,00574
1021,29; 6522,710;   -3,910; 6613,170; 0,00598
1021,83; 6464,890;   -4,530; 6538,330; 0,00490
1022,37; 6421,870;   -4,690; 6480,950; 0,00397
1022,92; 6385,720;   -4,290; 6423,940; 0,00259
1023,46; 6337,440;   -5,100; 6355,990; 0,00127
1024,00; 6280,350;   -4,440; 6304,040; 0,00163
1024,55; 6242,790;   -3,850; 6239,780;-0,00021
1025,09; 6197,830;   -4,830; 6188,570;-0,00065
1025,63; 6143,320;   -3,910; 6138,970;-0,00031
1026,17; 6099,940;   -4,440; 6072,770;-0,00194
1026,72; 6052,720;   -4,480; 6023,270;-0,00212
1027,26; 6021,620;   -3,970; 5991,970;-0,00214
1027,80; 5974,200;   -4,430; 5950,650;-0,00171
1028,35; 5937,910;   -4,470; 5909,630;-0,00207
1028,89; 5897,610;   -4,540; 5882,330;-0,00113
1029,43; 5861,420;   -4,860; 5844,800;-0,00123
1029,97; 5809,320;   -4,260; 5818,040; 0,00065
1030,52; 5762,700;   -4,500; 5783,920; 0,00160
1031,06; 5720,390;   -4,110; 5737,580; 0,00130
1031,60; 5667,780;   -4,420; 5693,680; 0,00198
1032,14; 5606,680;   -3,860; 5618,460; 0,00091
1032,68; 5552,220;   -4,680; 5553,920; 0,00013
1033,23; 5488,880;   -4,800; 5500,370; 0,00091
1033,77; 5408,950;   -4,410; 5417,490; 0,00068
1034,31; 5334,360;   -4,330; 5339,480; 0,00042
1034,85; 5257,770;   -4,480; 5241,450;-0,00135
1035,39; 5167,430;   -4,140; 5163,240;-0,00035
1035,94; 5109,090;   -4,340; 5101,460;-0,00065
1036,48; 5056,030;   -4,910; 5043,450;-0,00108
1037,02; 4990,150;   -4,530; 4974,630;-0,00135
1037,56; 4943,330;   -4,440; 4920,130;-0,00204
1038,10; 4864,870;   -4,280; 4837,520;-0,00245
1038,64; 4806,370;   -4,330; 4773,870;-0,00294
1039,19; 4748,340;   -4,380; 4705,710;-0,00391
1039,73; 4685,480;   -3,970; 4652,480;-0,00307
1040,27; 4618,940;   -4,130; 4591,750;-0,00256
1040,81; 4554,300;   -4,120; 4519,110;-0,00337
1041,35; 4493,910;   -5,610; 4470,110;-0,00230
1041,89; 4432,120;   -4,560; 4408,390;-0,00233
1042,43; 4368,770;   -4,220; 4349,450;-0,00192
1042,97; 4304,790;   -4,260; 4292,410;-0,00125
1043,52; 4241,460;   -4,640; 4233,740;-0,00079
1044,06; 4180,970;   -4,570; 4173,140;-0,00081
1044,60; 4125,580;   -4,470; 4117,220;-0,00088
1045,14; 4065,370;   -4,050; 4061,130;-0,00045
1045,68; 4009,050;   -5,140; 4008,850;-0,00002
1046,22; 3968,160;   -4,180; 3961,040;-0,00078
1046,76; 3917,980;   -3,830; 3916,220;-0,00019
1047,30; 3854,940;   -4,700; 3874,350; 0,00218
1047,84; 3798,500;   -3,890; 3819,370; 0,00238
1048,38; 3741,020;   -3,850; 3777,200; 0,00418
1048,92; 3686,890;   -4,160; 3730,520; 0,00510
1049,46; 3642,090;   -3,800; 3679,990; 0,00449
1050,00; 3587,720;   -4,730; 3631,060; 0,00521
1050,55; 3533,390;   -4,000; 3586,370; 0,00646
1051,09; 3485,620;   -4,140; 3540,170; 0,00674
1051,63; 3433,760;   -4,290; 3480,570; 0,00587
1052,17; 3381,450;   -4,740; 3431,840; 0,00642
1052,71; 3334,690;   -4,660; 3374,760; 0,00518
1053,25; 3281,780;   -4,430; 3327,810; 0,00604
1053,79; 3229,320;   -3,780; 3264,770; 0,00474
1054,33; 3177,530;   -4,580; 3208,350; 0,00419
1054,87; 3130,380;   -4,130; 3160,030; 0,00409
1055,41; 3082,940;   -5,190; 3108,860; 0,00363
1055,95; 3029,450;   -4,700; 3042,650; 0,00189
1056,49; 2980,520;   -4,270; 2995,560; 0,00218
1057,03; 2939,940;   -4,700; 2945,860; 0,00087
1057,57; 2895,560;   -4,110; 2904,150; 0,00128
1058,11; 2860,910;   -4,640; 2865,940; 0,00076
1058,64; 2824,760;   -4,210; 2823,170;-0,00024
1059,18; 2792,010;   -4,250; 2787,160;-0,00075
1059,72; 2752,450;   -4,760; 2751,060;-0,00022
1060,26; 2725,620;   -4,650; 2718,280;-0,00117
1060,80; 2695,620;   -4,270; 2688,580;-0,00113
1061,34; 2662,240;   -4,550; 2655,190;-0,00115
1061,88; 2631,300;   -3,690; 2623,170;-0,00134
1062,42; 2600,560;   -4,530; 2589,070;-0,00192
1062,96; 2569,840;   -4,370; 2560,980;-0,00150
1063,50; 2535,410;   -4,500; 2534,200;-0,00021
1064,04; 2512,890;   -4,620; 2500,300;-0,00218
1064,58; 2481,570;   -4,360; 2477,880;-0,00065
1065,12; 2451,710;   -4,480; 2445,730;-0,00106
1065,65; 2418,130;   -4,660; 2417,910;-0,00004
1066,19; 2388,970;   -3,720; 2387,860;-0,00020
1066,73; 2359,430;   -4,950; 2359,940; 0,00009
1067,27; 2320,660;   -4,710; 2328,300; 0,00142
1067,81; 2287,100;   -4,360; 2297,320; 0,00193
1068,35; 2254,640;   -4,470; 2265,410; 0,00207
1068,89; 2225,470;   -4,390; 2237,980; 0,00243
1069,43; 2194,510;   -4,920; 2198,800; 0,00085
1069,96; 2163,900;   -3,860; 2180,010; 0,00322
1070,50; 2134,870;   -3,620; 2150,490; 0,00316
1071,04; 2105,680;   -4,540; 2122,820; 0,00351
1071,58; 2076,700;   -4,990; 2090,420; 0,00285
1072,12; 2044,600;   -4,970; 2059,790; 0,00321
1072,66; 2018,200;   -3,950; 2036,760; 0,00397
1073,19; 1992,320;   -3,800; 2005,050; 0,00276
1073,73; 1966,870;   -4,750; 1972,200; 0,00117
1074,27; 1938,410;   -3,630; 1945,700; 0,00163
1074,81; 1906,020;   -4,490; 1914,960; 0,00203
1075,35; 1880,440;   -4,760; 1890,160; 0,00223
1075,88; 1849,980;   -4,650; 1860,730; 0,00251
1076,42; 1825,760;   -4,410; 1835,620; 0,00233
1076,96; 1801,530;   -4,530; 1810,570; 0,00217
1077,50; 1773,020;   -4,250; 1781,790; 0,00214
1078,04; 1749,250;   -4,900; 1757,820; 0,00212
1078,57; 1728,250;   -4,230; 1735,000; 0,00169
1079,11; 1698,850;   -4,320; 1711,790; 0,00329
1079,65; 1677,250;   -3,610; 1684,090; 0,00176
1080,19; 1653,630;   -4,330; 1660,970; 0,00192
1080,72; 1627,300;   -4,330; 1636,600; 0,00247
1081,26; 1601,620;   -4,620; 1608,210; 0,00178
1081,80; 1578,900;   -4,520; 1582,630; 0,00102
1082,33; 1556,970;   -4,790; 1558,280; 0,00036
1082,87; 1541,080;   -4,360; 1540,340;-0,00021
1083,41; 1514,750;   -4,960; 1509,420;-0,00153
1083,95; 1489,120;   -4,110; 1489,530; 0,00012
1084,48; 1470,310;   -3,860; 1466,350;-0,00117
1085,02; 1453,000;   -4,610; 1442,050;-0,00327
1085,56; 1424,980;   -3,840; 1421,700;-0,00100
1086,09; 1407,930;   -4,420; 1399,340;-0,00265
1086,63; 1388,010;   -4,760; 1377,230;-0,00337
1087,17; 1363,810;   -4,230; 1356,980;-0,00217
1087,70; 1345,300;   -4,420; 1334,150;-0,00360
1088,24; 1326,450;   -3,590; 1314,230;-0,00401
1088,78; 1304,390;   -4,250; 1290,750;-0,00455
1089,31; 1277,860;   -4,350; 1270,660;-0,00245
1089,85; 1260,610;   -3,890; 1248,670;-0,00412
1090,39; 1242,940;   -4,920; 1230,530;-0,00434
1090,92; 1218,130;   -4,690; 1207,780;-0,00369
1091,46; 1200,150;   -5,300; 1191,320;-0,00319
1092,00; 1185,900;   -3,740; 1173,800;-0,00444
1092,53; 1160,730;   -4,250; 1151,540;-0,00344
1093,07; 1146,240;   -4,490; 1134,930;-0,00429
1093,60; 1122,790;   -3,930; 1116,310;-0,00250
1094,14; 1110,710;   -4,880; 1098,430;-0,00481
1094,68; 1092,150;   -4,790; 1083,220;-0,00355
1095,21; 1071,390;   -4,400; 1063,940;-0,00302
1095,75; 1056,520;   -4,200; 1050,660;-0,00241
1096,28; 1040,340;   -4,110; 1033,090;-0,00303
1096,82; 1019,540;   -4,300; 1018,540;-0,00042
1097,36; 1005,010;   -4,780; 1003,370;-0,00071
1097,89;  988,830;   -4,350;  989,840; 0,00044
1098,43;  972,700;   -4,090;  980,580; 0,00349
1098,96;  957,800;   -4,570;  967,980; 0,00457
1099,50;  943,480;   -4,350;  948,650; 0,00236
1100,03;  933,260;   -5,650;  942,200; 0,00412

