AE-579-10-2
Integration time [ms]:   9,690
Averaging Nr. [scans]: 100
Smoothing Nr. [pixels]: 0
Data measured with spectrometer [name]: 7420287SP
Wave   ;Sample   ;Dark     ;Reference;Absorbance
[nm]   ;[counts] ;[counts] ;[counts] ;[A.U]

 179,38;  -40,945;   -6,952;   -8,584; 0,00000
 179,98;  -41,571;   -6,252;   -9,024; 0,00000
 180,58;  -33,401;   -6,402;    1,789; 5,00000
 181,18;  -39,610;   -8,102;   -6,059; 5,00000
 181,78;  -47,766;   -7,262;  -15,163; 0,00000
 182,38;  -51,354;   -6,041;  -19,355; 0,00000
 182,97;  -49,032;   -7,682;  -14,995; 0,00000
 183,57;  -50,884;   -7,261;  -19,005; 0,00000
 184,17;  -61,156;   -6,931;  -29,041; 0,00000
 184,77;  -62,792;   -7,721;  -32,541; 0,00000
 185,37;  -67,988;   -6,860;  -39,616; 0,00000
 185,97;  -75,257;   -7,970;  -46,657; 0,00000
 186,57;  -72,216;   -8,030;  -41,249; 0,00000
 187,17;  -82,554;   -7,190;  -55,748; 0,00000
 187,77; -104,724;   -8,389;  -77,999; 0,00000
 188,37;  -94,880;   -7,059;  -68,326; 0,00000
 188,97; -114,934;   -7,478;  -89,237; 0,00000
 189,57; -113,074;   -7,708;  -90,625; 0,00000
 190,17; -131,082;   -7,567; -106,846; 0,00000
 190,77; -136,753;   -8,396; -115,029; 0,00000
 191,37; -148,569;   -6,646; -128,157; 0,00000
 191,96; -160,179;   -8,235; -140,015; 0,00000
 192,56; -194,452;   -8,533; -177,665; 0,00000
 193,16; -184,504;   -6,644; -167,602; 0,00000
 193,76; -163,690;   -8,885; -145,131; 0,00000
 194,36; -211,210;   -6,932; -196,166; 0,00000
 194,96; -213,475;   -7,832; -200,394; 0,00000
 195,56; -170,439;   -7,075; -153,575; 0,00000
 196,16; -133,958;   -6,527; -111,743; 0,00000
 196,76;  -89,716;   -8,250;  -61,102; 0,00000
 197,36;  -78,327;   -7,210;  -48,382; 0,00000
 197,95;  -58,762;   -7,452;  -27,935; 0,00000
 198,55;  -64,201;   -7,771;  -36,492; 0,00000
 199,15;  -58,591;   -6,642;  -25,929; 0,00000
 199,75;  -48,068;   -7,172;  -16,057; 0,00000
 200,35;  -59,666;   -7,152;  -29,953; 0,00000
 200,95;  -52,176;   -7,032;  -21,540; 0,00000
 201,55;  -52,585;   -7,752;  -22,924; 0,00000
 202,15;  -55,856;   -7,222;  -23,128; 0,00000
 202,74;  -44,557;   -7,083;   -9,106; 0,00000
 203,34;  -52,893;   -7,062;  -20,103; 0,00000
 203,94;  -36,197;   -5,943;   -1,133; 5,00000
 204,54;  -51,616;   -7,562;  -18,375; 0,00000
 205,14;  -39,605;   -6,553;   -7,117; 0,00000
 205,74;  -46,978;   -6,043;  -12,914; 0,00000
 206,34;  -45,192;   -7,653;  -12,594; 0,00000
 206,93;  -42,820;   -6,513;   -8,972; 0,00000
 207,53;  -46,691;   -6,993;  -11,238; 0,00000
 208,13;  -49,528;   -6,233;  -13,504; 0,00000
 208,73;  -39,767;   -5,503;   -6,103; 0,00000
 209,33;  -54,671;   -7,382;  -22,161; 0,00000
 209,93;  -42,998;   -5,893;   -9,027; 0,00000
 210,52;  -46,070;   -6,333;  -13,542; 0,00000
 211,12;  -34,827;   -5,483;    0,472; 5,00000
 211,72;  -42,868;   -5,833;   -7,761; 0,00000
 212,32;  -41,430;   -6,983;   -6,175; 0,00000
 212,92;  -44,019;   -5,753;  -12,405; 0,00000
 213,52;  -43,803;   -5,893;   -8,635; 0,00000
 214,11;  -44,933;   -7,463;  -10,423; 0,00000
 214,71;  -37,008;   -5,043;   -0,264; 5,00000
 215,31;  -46,134;   -7,093;  -12,429; 0,00000
 215,91;  -29,947;   -5,364;    8,407; 5,00000
 216,51;  -40,146;   -5,733;   -4,189; 5,00000
 217,10;  -40,150;   -7,083;   -4,238; 5,00000
 217,70;  -47,375;   -6,063;  -11,956; 0,00000
 218,30;  -35,971;   -6,583;    1,422; 5,00000
 218,90;  -45,969;   -5,473;   -9,785; 0,00000
 219,50;  -35,858;   -5,373;    1,154; 5,00000
 220,09;  -34,082;   -6,643;    1,694; 5,00000
 220,69;  -38,264;   -5,593;    1,114; 5,00000
 221,29;  -37,193;   -5,603;    3,778; 5,00000
 221,89;  -51,714;   -5,452;  -15,804; 0,00000
 222,49;  -39,680;   -4,913;    2,002; 5,00000
 223,08;  -37,198;   -6,163;    4,436; 5,00000
 223,68;  -34,093;   -4,963;    5,538; 5,00000
 224,28;  -44,929;   -4,993;   -4,473; 0,00000
 224,88;  -43,578;   -6,253;   -2,389; 5,00000
 225,47;  -45,336;   -4,593;   -4,102; 0,00000
 226,07;  -36,059;   -6,063;    4,730; 5,00000
 226,67;  -42,954;   -5,103;   -0,161; 5,00000
 227,27;  -37,435;   -5,113;    4,597; 5,00000
 227,87;  -42,708;   -5,993;   -2,177; 5,00000
 228,46;  -37,406;   -4,963;    4,771; 5,00000
 229,06;  -43,875;   -4,943;   -2,836; 5,00000
 229,66;  -35,009;   -5,553;    5,870; 5,00000
 230,26;  -42,495;   -5,263;   -1,194; 5,00000
 230,85;  -48,143;   -6,163;   -8,736; 0,00000
 231,45;  -47,288;   -4,833;   -4,604; 0,00000
 232,05;  -38,488;   -5,803;    2,711; 5,00000
 232,64;  -48,964;   -5,732;   -7,622; 0,00000
 233,24;  -53,043;   -5,202;  -11,803; 0,00000
 233,84;  -56,364;   -6,192;  -15,097; 0,00000
 234,44;  -49,985;   -5,232;   -7,180; 0,00000
 235,03;  -64,550;   -4,882;  -23,882; 0,00000
 235,63;  -55,013;   -6,242;  -12,921; 0,00000
 236,23;  -42,871;   -4,883;    1,222; 5,00000
 236,83;  -43,161;   -5,273;    0,324; 5,00000
 237,42;  -43,353;   -5,933;   -1,570; 5,00000
 238,02;  -60,193;   -5,022;  -17,304; 0,00000
 238,62;  -44,366;   -6,423;   -0,150; 5,00000
 239,21;  -46,960;   -5,062;   -2,325; 5,00000
 239,81;  -46,678;   -6,203;   -1,072; 5,00000
 240,41;  -48,936;   -5,452;   -2,867; 5,00000
 241,00;  -49,286;   -5,052;   -3,305; 5,00000
 241,60;  -52,041;   -6,502;   -4,319; 5,00000
 242,20;  -47,609;   -5,462;   -0,888; 5,00000
 242,80;  -50,020;   -5,902;   -2,715; 5,00000
 243,39;  -40,259;   -7,053;    7,767; 5,00000
 243,99;  -52,738;   -5,132;   -3,165; 5,00000
 244,59;  -49,125;   -7,062;   -1,550; 5,00000
 245,18;  -51,186;   -5,322;   -2,615; 5,00000
 245,78;  -52,712;   -5,542;   -6,707; 0,00000
 246,38;  -53,916;   -6,902;   -6,135; 0,00000
 246,97;  -40,493;   -5,473;    9,287; 5,00000
 247,57;  -38,761;   -6,283;   10,109; 5,00000
 248,17;  -42,688;   -6,023;    8,841; 5,00000
 248,76;  -47,341;   -5,343;    4,842; 5,00000
 249,36;  -39,520;   -7,363;   13,373; 5,00000
 249,96;  -41,823;   -4,563;   10,217; 5,00000
 250,55;  -32,941;   -6,123;   20,990; 5,00000
 251,15;  -43,113;   -6,203;   13,505; 5,00000
 251,75;  -35,825;   -4,823;   19,267; 5,00000
 252,34;  -41,053;   -6,373;   12,985; 5,00000
 252,94;  -29,570;   -5,323;   26,828; 5,00000
 253,54;  -43,415;   -5,383;   13,913; 5,00000
 254,13;  -39,812;   -7,073;   15,781; 5,00000
 254,73;  -26,558;   -5,464;   31,921; 5,00000
 255,32;  -46,622;   -5,613;    8,646; 5,00000
 255,92;  -34,233;   -6,413;   23,710; 5,00000
 256,52;  -39,077;   -5,133;   21,525; 5,00000
 257,11;  -40,951;   -6,873;   21,647; 5,00000
 257,71;  -27,132;   -5,684;   36,909; 5,00000
 258,31;  -35,934;   -5,863;   24,176; 5,00000
 258,90;  -41,278;   -6,533;   21,799; 5,00000
 259,50;  -33,869;   -5,343;   29,228; 5,00000
 260,09;  -38,106;   -6,853;   24,873; 5,00000
 260,69;  -34,914;   -5,623;   32,326; 5,00000
 261,29;  -34,603;   -5,423;   33,112; 5,00000
 261,88;  -37,930;   -6,943;   31,843; 5,00000
 262,48;  -35,404;   -5,713;   34,174; 5,00000
 263,07;  -40,637;   -6,403;   29,747; 5,00000
 263,67;  -35,654;   -6,233;   35,654; 5,00000
 264,27;  -27,052;   -5,294;   49,001; 5,00000
 264,86;  -32,002;   -6,913;   40,264; 5,00000
 265,46;  -32,107;   -4,773;   43,180; 5,00000
 266,05;  -24,517;   -5,374;   53,553; 5,00000
 266,65;  -31,882;   -6,663;   45,366; 5,00000
 267,24;  -32,313;   -5,523;   48,008; 5,00000
 267,84;  -33,706;   -6,093;   48,248; 5,00000
 268,44;  -40,563;   -5,213;   41,097; 5,00000
 269,03;  -33,042;   -6,603;   52,316; 5,00000
 269,63;  -33,432;   -6,623;   54,454; 5,00000
 270,22;  -31,961;   -4,903;   57,912; 5,00000
 270,82;  -35,698;   -6,323;   55,756; 5,00000
 271,41;  -30,622;   -5,553;   61,974; 5,00000
 272,01;  -42,809;   -5,513;   53,475; 5,00000
 272,61;  -27,244;   -6,794;   70,597; 5,00000
 273,20;  -33,003;   -5,233;   67,938; 5,00000
 273,80;  -31,771;   -6,433;   73,030; 5,00000
 274,39;  -32,016;   -6,233;   77,316; 5,00000
 274,99;  -33,758;   -5,793;   78,746; 5,00000
 275,58;  -27,239;   -6,344;   89,425; 5,00000
 276,18;  -32,670;   -5,313;   86,742; 5,00000
 276,77;  -26,470;   -6,284;   99,296; 5,00000
 277,37;  -29,988;   -6,133;   98,836; 5,00000
 277,96;  -33,128;   -4,893;   98,051; 5,00000
 278,56;  -24,666;   -6,473;  111,368; 5,00000
 279,15;  -28,901;   -5,563;  112,527; 5,00000
 279,75;  -39,403;   -5,363;  108,244; 5,00000
 280,34;  -26,485;   -6,133;  128,407; 5,00000
 280,94;  -25,515;   -4,743;  140,927; 5,00000
 281,53;  -36,531;   -6,703;  147,952; 5,00000
 282,13;  -34,696;   -6,243;  173,338; 5,00000
 282,73;  -28,810;   -4,303;  216,912; 5,00000
 283,32;  -27,120;   -6,803;  263,721; 5,00000
 283,92;  -34,220;   -4,773;  322,950; 5,00000
 284,51;  -20,441;   -5,853;  427,942; 5,00000
 285,10;  -29,918;   -6,093;  549,859; 5,00000
 285,70;  -32,595;   -5,313;  724,074; 5,00000
 286,29;  -26,275;   -6,573;  951,007; 5,00000
 286,89;  -16,051;   -5,323; 1220,270; 5,00000
 287,48;  -30,875;   -6,013; 1489,506; 5,00000
 288,08;  -25,202;   -6,043; 1774,173; 5,00000
 288,67;  -28,311;   -4,953; 2053,592; 5,00000
 289,27;  -32,142;   -6,383; 2295,886; 5,00000
 289,86;  -18,800;   -5,863; 2512,322; 5,00000
 290,46;  -19,756;   -5,763; 2631,981; 5,00000
 291,05;  -19,565;   -6,813; 2661,059; 5,00000
 291,65;  -21,653;   -4,483; 2708,347; 5,00000
 292,24;  -19,396;   -6,073; 2906,233; 5,00000
 292,84;  -17,954;   -6,413; 3350,619; 5,00000
 293,43;  -16,318;   -5,353; 4074,691; 5,00000
 294,03;  -12,519;   -6,363; 5036,896; 5,00000
 294,62;   -4,135;   -5,053; 6163,665; 3,82747
 295,21;    7,987;   -6,393; 7355,057; 2,70921
 295,81;   21,352;   -6,253; 8559,173; 2,49177
 296,40;   23,279;   -4,692; 9630,850; 2,53716
 297,00;   47,195;   -6,283;10568,242; 2,29608
 297,59;   67,667;   -6,053;11186,677; 2,18135
 298,19;   92,888;   -5,313;11599,506; 2,07252
 298,78;  102,689;   -5,613;12301,282; 2,05551
 299,37;  133,650;   -4,713;13362,330; 1,98502
 299,97;  180,137;   -6,574;14361,393; 1,88623
 300,56;  202,009;   -5,383;15001,348; 1,85949
 301,16;  236,336;   -5,713;15467,006; 1,80566
 301,75;  266,439;   -6,853;15864,598; 1,76399
 302,35;  293,547;   -5,093;16277,750; 1,73658
 302,94;  324,380;   -6,062;16652,887; 1,70255
 303,53;  374,155;   -6,243;16977,000; 1,64978
 304,13;  408,740;   -4,753;17244,955; 1,62031
 304,72;  441,572;   -6,443;17479,563; 1,59140
 305,32;  484,954;   -5,843;17686,221; 1,55688
 305,91;  513,976;   -4,843;17830,980; 1,53628
 306,50;  552,099;   -6,433;17952,830; 1,50724
 307,10;  588,892;   -5,423;18059,205; 1,48281
 307,69;  620,182;   -6,603;18101,834; 1,46076
 308,28;  645,103;   -5,323;18129,404; 1,44531
 308,88;  681,376;   -5,984;18142,068; 1,42165
 309,47;  694,188;   -7,033;18030,523; 1,41032
 310,07;  719,213;   -4,993;17869,688; 1,39238
 310,66;  739,571;   -6,513;17716,945; 1,37576
 311,25;  779,186;   -5,513;17659,883; 1,35242
 311,85;  812,939;   -5,553;17656,463; 1,33403
 312,44;  864,931;   -6,173;17703,617; 1,30814
 313,03;  924,818;   -4,883;17736,563; 1,28065
 313,63;  984,623;   -5,713;17732,916; 1,25314
 314,22; 1051,027;   -6,653;17679,074; 1,22327
 314,81; 1124,746;   -5,173;17644,209; 1,19368
 315,41; 1212,139;   -7,073;17621,229; 1,16013
 316,00; 1296,036;   -5,962;17585,807; 1,13070
 316,59; 1392,318;   -5,543;17521,938; 1,09826
 317,19; 1491,323;   -6,463;17475,479; 1,06714
 317,78; 1600,552;   -5,413;17447,902; 1,03614
 318,37; 1708,436;   -6,333;17558,309; 1,01043
 318,97; 1830,640;   -6,092;17758,246; 0,98550
 319,56; 1986,319;   -5,233;18095,332; 0,95850
 320,15; 2133,767;   -6,463;18475,043; 0,93628
 320,75; 2291,508;   -4,843;18853,971; 0,91448
 321,34; 2442,828;   -6,313;19235,428; 0,89523
 321,93; 2609,416;   -6,003;19618,475; 0,87526
 322,53; 2756,929;   -5,623;19958,043; 0,85893
 323,12; 2903,083;   -6,793;20275,422; 0,84324
 323,71; 3049,074;   -5,653;20558,240; 0,82813
 324,31; 3196,452;   -4,753;20826,139; 0,81339
 324,90; 3349,128;   -6,503;21117,912; 0,79901
 325,49; 3488,520;   -5,273;21388,471; 0,78699
 326,09; 3638,359;   -6,543;21623,273; 0,77337
 326,68; 3762,217;   -5,413;21834,305; 0,76318
 327,27; 3895,360;   -5,763;21981,729; 0,75099
 327,86; 4018,502;   -6,533;22135,459; 0,74045
 328,46; 4130,922;   -5,113;22237,570; 0,73060
 329,05; 4250,350;   -5,853;22316,475; 0,71972
 329,64; 4358,626;   -5,953;22363,279; 0,70971
 330,23; 4462,362;   -5,673;22413,033; 0,70049
 330,83; 4527,059;   -7,042;22336,912; 0,69267
 331,42; 4615,079;   -5,233;22214,564; 0,68207
 332,01; 4660,160;   -6,333;22031,814; 0,67418
 332,61; 4678,842;   -6,283;21749,596; 0,66686
 333,20; 4681,917;   -5,343;21443,045; 0,66048
 333,79; 4714,758;   -6,183;21251,787; 0,65349
 334,38; 4785,025;   -5,773;21191,357; 0,64587
 334,98; 4865,037;   -6,253;21224,994; 0,63933
 335,57; 4971,651;   -6,543;21375,709; 0,63298
 336,16; 5058,361;   -4,303;21406,154; 0,62625
 336,75; 5126,876;   -6,433;21418,672; 0,62053
 337,34; 5168,753;   -5,653;21346,521; 0,61558
 337,94; 5198,316;   -5,563;21296,684; 0,61210
 338,53; 5221,860;   -6,933;21179,258; 0,60765
 339,12; 5236,600;   -5,333;21025,969; 0,60337
 339,71; 5249,400;   -6,343;20847,201; 0,59855
 340,31; 5240,069;   -5,803;20662,535; 0,59549
 340,90; 5207,300;   -5,814;20352,236; 0,59164
 341,49; 5122,192;   -6,693;19869,068; 0,58830
 342,08; 4998,838;   -5,293;19307,129; 0,58651
 342,67; 4923,759;   -5,223;18885,223; 0,58348
 343,27; 4934,969;   -6,473;18838,494; 0,58134
 343,86; 5026,585;   -5,142;19086,877; 0,57913
 344,45; 5124,284;   -6,161;19381,693; 0,57737
 345,04; 5200,995;   -4,952;19545,514; 0,57466
 345,63; 5227,665;   -5,482;19591,367; 0,57342
 346,23; 5265,470;   -6,202;19629,117; 0,57109
 346,82; 5262,262;   -5,151;19532,555; 0,56928
 347,41; 5271,737;   -5,692;19473,037; 0,56714
 348,00; 5249,305;   -5,882;19286,875; 0,56481
 348,59; 5192,160;   -5,632;19065,006; 0,56455
 349,19; 5175,002;   -6,202;18931,750; 0,56290
 349,78; 5159,029;   -4,352;18811,160; 0,56158
 350,37; 5155,912;   -5,793;18676,432; 0,55864
 350,96; 5130,599;   -5,893;18514,184; 0,55698
 351,55; 5087,408;   -4,682;18339,664; 0,55661
 352,14; 5068,909;   -6,103;18218,732; 0,55523
 352,74; 5019,641;   -5,393;17993,635; 0,55411
 353,33; 4962,632;   -5,633;17690,309; 0,55167
 353,92; 4880,638;   -6,413;17365,693; 0,55081
 354,51; 4792,061;   -4,643;17008,066; 0,54983
 355,10; 4723,701;   -5,893;16737,967; 0,54903
 355,69; 4676,940;   -5,982;16540,285; 0,54818
 356,28; 4694,146;   -5,383;16525,365; 0,54624
 356,88; 4717,092;   -7,063;16571,768; 0,54523
 357,47; 4775,361;   -5,343;16693,814; 0,54320
 358,06; 4814,078;   -6,453;16770,131; 0,54161
 358,65; 4836,833;   -6,553;16799,123; 0,54031
 359,24; 4830,665;   -4,692;16750,348; 0,53972
 359,83; 4836,711;   -6,393;16692,752; 0,53757
 360,42; 4814,437;   -5,363;16598,018; 0,53717
 361,01; 4797,129;   -6,403;16472,164; 0,53536
 361,61; 4764,697;   -6,372;16346,877; 0,53499
 362,20; 4751,077;   -5,373;16235,432; 0,53332
 362,79; 4713,499;   -6,762;16039,999; 0,53142
 363,38; 4650,672;   -5,483;15758,828; 0,52965
 363,97; 4549,283;   -5,393;15380,175; 0,52866
 364,56; 4405,070;   -7,012;14879,702; 0,52816
 365,15; 4316,094;   -5,011;14539,604; 0,52711
 365,74; 4379,484;   -5,332;14674,755; 0,52478
 366,33; 4551,376;   -6,243;15129,891; 0,52128
 366,92; 4666,407;   -5,443;15472,902; 0,52024
 367,51; 4723,069;   -6,752;15639,201; 0,51956
 368,11; 4719,482;   -4,232;15559,198; 0,51782
 368,70; 4726,719;   -5,863;15511,313; 0,51571
 369,29; 4731,306;   -5,983;15478,068; 0,51435
 369,88; 4677,776;   -5,022;15255,186; 0,51305
 370,47; 4640,716;   -6,622;15069,581; 0,51109
 371,06; 4630,749;   -5,622;14984,239; 0,50962
 371,65; 4648,188;   -6,303;14925,303; 0,50623
 372,24; 4623,385;   -6,683;14829,614; 0,50574
 372,83; 4581,435;   -5,012;14669,882; 0,50510
 373,42; 4557,827;   -6,963;14515,231; 0,50261
 374,01; 4537,322;   -5,952;14405,403; 0,50134
 374,60; 4558,396;   -5,072;14403,556; 0,49933
 375,19; 4563,676;   -6,012;14415,883; 0,49914
 375,78; 4565,679;   -4,882;14340,859; 0,49675
 376,37; 4588,282;   -6,632;14395,813; 0,49616
 376,96; 4695,611;   -6,012;14667,781; 0,49429
 377,55; 4805,379;   -4,862;14969,867; 0,49319
 378,14; 4955,479;   -6,843;15342,452; 0,49040
 378,73; 5086,647;   -5,792;15729,139; 0,48994
 379,32; 5162,898;   -6,142;15916,280; 0,48860
 379,91; 5085,268;   -6,152;15616,695; 0,48692
 380,50; 5080,918;   -5,573;15528,708; 0,48487
 381,09; 5018,263;   -6,512;15316,167; 0,48422
 381,68; 4982,741;   -5,272;15184,276; 0,48362
 382,27; 5030,171;   -5,452;15284,986; 0,48237
 382,86; 5024,940;   -7,153;15224,261; 0,48099
 383,45; 4945,229;   -4,612;14986,246; 0,48124
 384,04; 4866,039;   -5,912;14709,991; 0,48008
 384,63; 4716,418;   -6,133;14226,026; 0,47909
 385,22; 4583,203;   -5,722;13853,117; 0,48002
 385,81; 4612,879;   -6,463;13867,752; 0,47763
 386,40; 4761,156;   -5,422;14277,813; 0,47662
 386,99; 4965,804;   -5,782;14854,423; 0,47553
 387,58; 5103,563;   -6,382;15280,479; 0,47590
 388,17; 5209,750;   -4,812;15589,902; 0,47576
 388,76; 5196,078;   -6,582;15521,225; 0,47488
 389,35; 5055,053;   -5,462;15104,007; 0,47505
 389,94; 5046,993;   -5,582;15054,849; 0,47432
 390,53; 5075,032;   -6,642;15152,793; 0,47468
 391,12; 5143,759;   -4,872;15323,419; 0,47380
 391,71; 5289,198;   -6,072;15741,625; 0,47333
 392,30; 5515,678;   -5,732;16387,375; 0,47261
 392,89; 5598,819;   -5,592;16627,717; 0,47245
 393,48; 5318,559;   -7,442;15786,718; 0,47210
 394,07; 5087,779;   -5,402;15104,201; 0,47226
 394,66; 5035,483;   -6,013;14908,122; 0,47104
 395,25; 4954,198;   -5,692;14681,021; 0,47145
 395,84; 4928,113;   -4,672;14551,529; 0,46996
 396,43; 4998,351;   -6,052;14754,028; 0,46974
 397,01; 5150,482;   -4,622;15190,990; 0,46948
 397,60; 5438,000;   -5,002;15964,435; 0,46745
 398,19; 5678,010;   -6,362;16608,713; 0,46582
 398,78; 5582,898;   -4,812;16356,392; 0,46658
 399,37; 5309,899;   -6,863;15535,555; 0,46587
 399,96; 5115,774;   -5,132;14966,583; 0,46592
 400,55; 5050,349;   -5,462;14761,714; 0,46551
 401,14; 5037,991;   -6,053;14679,380; 0,46411
 401,73; 4913,976;   -5,032;14327,083; 0,46443
 402,32; 4873,690;   -6,012;14183,375; 0,46357
 402,91; 4864,313;   -5,542;14126,009; 0,46267
 403,49; 4861,880;   -5,032;14107,193; 0,46234
 404,08; 4864,603;   -6,382;14105,136; 0,46196
 404,67; 4887,382;   -5,162;14159,581; 0,46167
 405,26; 4840,721;   -6,331;14049,129; 0,46237
 405,85; 4624,422;   -6,182;13454,608; 0,46343
 406,44; 4384,907;   -5,432;12782,972; 0,46432
 407,03; 4339,849;   -6,832;12622,600; 0,46323
 407,62; 4387,162;   -4,992;12787,263; 0,46427
 408,20; 4562,532;   -6,132;13288,121; 0,46387
 408,79; 4618,741;   -6,562;13473,497; 0,46455
 409,38; 4552,646;   -4,552;13283,732; 0,46477
 409,97; 4454,657;   -6,652;13021,449; 0,46542
 410,56; 4258,650;   -5,422;12517,213; 0,46787
 411,15; 4165,952;   -5,272;12251,345; 0,46811
 411,73; 4089,613;   -6,232;12053,411; 0,46899
 412,32; 4071,095;   -5,342;12007,206; 0,46935
 412,91; 4000,934;   -6,412;11890,952; 0,47259
 413,50; 3938,852;   -6,132;11710,505; 0,47276
 414,09; 3803,447;   -4,502;11342,537; 0,47419
 414,68; 3721,889;   -6,612;11146,736; 0,47587
 415,26; 3711,344;   -5,842;11131,049; 0,47655
 415,85; 3778,880;   -5,132;11370,926; 0,47804
 416,44; 3854,005;   -5,872;11641,675; 0,47966
 417,03; 3869,510;   -5,032;11725,912; 0,48111
 417,62; 3895,241;   -6,422;11870,014; 0,48344
 418,21; 3951,465;   -5,602;12036,168; 0,48332
 418,79; 4019,577;   -4,482;12309,532; 0,48574
 419,38; 4089,491;   -7,012;12572,539; 0,48725
 419,97; 4182,416;   -5,371;12914,895; 0,48929
 420,56; 4398,761;   -6,122;13650,164; 0,49140
 421,15; 4681,798;   -5,632;14543,708; 0,49191
 421,73; 4737,349;   -5,272;14808,521; 0,49465
 422,32; 4461,395;   -7,012;13988,648; 0,49584
 422,91; 4197,129;   -5,142;13227,234; 0,49815
 423,50; 4034,101;   -6,113;12755,620; 0,49951
 424,08; 3940,557;   -6,663;12543,634; 0,50236
 424,67; 3921,287;   -5,472;12573,529; 0,50561
 425,26; 3825,764;   -6,432;12337,721; 0,50801
 425,85; 3667,078;   -5,422;11863,913; 0,50946
 426,43; 3614,754;   -5,312;11796,926; 0,51325
 427,02; 3702,109;   -6,272;12124,472; 0,51470
 427,61; 3734,937;   -5,261;12314,779; 0,51772
 428,20; 3785,641;   -5,932;12517,866; 0,51892
 428,79; 3967,048;   -5,842;13155,278; 0,52019
 429,37; 4361,244;   -5,242;14512,016; 0,52175
 429,96; 4511,858;   -6,832;15116,735; 0,52464
 430,55; 4322,040;   -5,882;14527,202; 0,52608
 431,13; 3896,672;   -5,862;13162,421; 0,52818
 431,72; 3471,787;   -5,922;11821,804; 0,53161
 432,31; 3331,557;   -5,362;11421,355; 0,53458
 432,90; 3475,919;   -5,862;11937,959; 0,53534
 433,48; 3870,972;   -5,542;13369,983; 0,53787
 434,07; 3663,080;   -6,142;12709,938; 0,53978
 434,66; 3408,788;   -6,482;11895,378; 0,54219
 435,25; 3363,550;   -5,362;11793,791; 0,54436
 435,83; 3337,631;   -6,312;11768,422; 0,54669
 436,42; 3380,624;   -5,892;11955,268; 0,54802
 437,01; 3219,004;   -5,362;11395,894; 0,54851
 437,59; 3148,922;   -7,162;11257,965; 0,55259
 438,18; 3207,846;   -4,562;11489,091; 0,55363
 438,77; 3196,879;   -6,562;11493,904; 0,55510
 439,35; 3114,042;   -5,652;11231,558; 0,55655
 439,94; 3063,355;   -5,022;11103,533; 0,55875
 440,53; 3240,316;   -6,442;11786,989; 0,56019
 441,11; 3609,856;   -5,602;13129,646; 0,56027
 441,70; 3569,375;   -6,181;13062,167; 0,56288
 442,29; 3422,530;   -6,342;12575,740; 0,56460
 442,87; 3455,129;   -5,152;12756,621; 0,56680
 443,46; 3508,212;   -6,792;13005,147; 0,56842
 444,05; 3356,099;   -5,021;12571,979; 0,57309
 444,63; 3285,183;   -5,432;12302,256; 0,57290
 445,22; 3190,909;   -7,002;11999,256; 0,57454
 445,81; 3153,204;   -5,172;11884,330; 0,57570
 446,39; 3186,001;   -5,862;12058,745; 0,57747
 446,98; 3013,591;   -5,911;11510,565; 0,58138
 447,57; 2904,857;   -5,352;11125,124; 0,58259
 448,15; 2814,874;   -6,412;10847,096; 0,58512
 448,74; 2851,101;   -4,931;11032,110; 0,58709
 449,33; 2853,843;   -5,852;11071,733; 0,58813
 449,91; 2806,447;   -5,711;10969,566; 0,59138
 450,50; 2755,084;   -5,422;10805,846; 0,59289
 451,08; 2677,139;   -6,822;10545,951; 0,59459
 451,67; 2699,516;   -4,942;10640,277; 0,59507
 452,26; 2623,412;   -5,041;10445,657; 0,59945
 452,84; 2511,963;   -6,502;10031,466; 0,60051
 453,43; 2409,644;   -5,352; 9665,431; 0,60255
 454,02; 2381,606;   -5,872; 9571,572; 0,60331
 454,60; 2402,866;   -5,702; 9720,407; 0,60618
 455,19; 2500,575;   -6,102;10120,344; 0,60636
 455,77; 2381,227;   -6,312; 9708,956; 0,60950
 456,36; 2301,622;   -4,501; 9440,005; 0,61230
 456,95; 2367,186;   -5,582; 9699,951; 0,61176
 457,53; 2450,712;   -5,402;10071,673; 0,61309
 458,12; 2443,711;   -5,782;10082,747; 0,61475
 458,70; 2441,711;   -6,602;10097,539; 0,61563
 459,29; 2458,489;   -5,232;10244,663; 0,61913
 459,87; 2451,942;   -5,412;10226,890; 0,61951
 460,46; 2407,194;   -5,952;10089,018; 0,62152
 461,05; 2378,153;   -5,332;10003,646; 0,62318
 461,63; 2126,035;   -6,582; 8999,225; 0,62561
 462,22; 1991,541;   -5,232; 8488,184; 0,62875
 462,80; 2021,114;   -5,502; 8631,505; 0,62959
 463,39; 2148,709;   -6,472; 9169,760; 0,62918
 463,97; 2188,242;   -5,352; 9361,270; 0,63043
 464,56; 2315,221;   -6,162; 9914,764; 0,63081
 465,14; 2415,179;   -5,161;10382,796; 0,63265
 465,73; 2463,850;   -5,442;10560,110; 0,63132
 466,31; 2145,245;   -7,541; 9307,517; 0,63618
 466,90; 1935,376;   -4,042; 8412,810; 0,63748
 467,49; 1864,449;   -5,262; 8105,994; 0,63731
 468,07; 1821,545;   -6,542; 7940,343; 0,63820
 468,66; 1702,703;   -4,962; 7489,599; 0,64234
 469,24; 1644,417;   -5,772; 7201,192; 0,64022
 469,83; 1580,480;   -5,242; 6969,676; 0,64331
 470,41; 1577,246;   -5,592; 6955,419; 0,64324
 471,00; 1551,308;   -6,172; 6879,805; 0,64554
 471,58; 1588,545;   -4,202; 7032,372; 0,64521
 472,17; 1624,599;   -6,552; 7195,339; 0,64495
 472,75; 1691,880;   -5,372; 7457,431; 0,64316
 473,34; 1741,092;   -5,191; 7652,375; 0,64198
 473,92; 1728,647;   -5,782; 7588,202; 0,64131
 474,51; 1791,401;   -5,422; 7787,179; 0,63718
 475,09; 1883,705;   -5,772; 8207,842; 0,63819
 475,68; 1770,967;   -5,351; 7753,289; 0,64026
 476,26; 1720,431;   -4,462; 7501,692; 0,63866
 476,85; 1655,835;   -6,332; 7227,854; 0,63872
 477,43; 1673,633;   -5,251; 7335,258; 0,64071
 478,01; 1777,481;   -5,872; 7694,944; 0,63530
 478,60; 1706,670;   -6,581; 7414,194; 0,63663
 479,18; 1751,734;   -4,782; 7527,405; 0,63227
 479,77; 1857,450;   -6,622; 7932,788; 0,62933
 480,35; 1886,517;   -4,862; 7989,489; 0,62600
 480,94; 1854,036;   -5,542; 7834,626; 0,62491
 481,52; 1956,786;   -6,352; 8189,540; 0,62065
 482,11; 1863,148;   -4,532; 7753,050; 0,61842
 482,69; 1767,112;   -5,932; 7310,123; 0,61556
 483,27; 1791,974;   -5,762; 7388,182; 0,61415
 483,86; 1906,167;   -5,172; 7790,402; 0,61051
 484,44; 2208,978;   -5,952; 8952,267; 0,60686
 485,03; 3709,538;   -5,042;14689,627; 0,59725
 485,61; 7467,727;   -5,631;28938,031; 0,58804
 486,20; 5353,960;   -5,991;20906,672; 0,59125
 486,78; 2779,269;   -5,411;10945,977; 0,59469
 487,36; 2164,133;   -6,082; 8468,921; 0,59164
 487,95; 1801,983;   -5,201; 7033,188; 0,59047
 488,53; 1755,180;   -5,511; 6775,143; 0,58559
 489,12; 1723,938;   -6,312; 6588,805; 0,58111
 489,70; 1650,041;   -4,581; 6285,676; 0,57997
 490,28; 1629,326;   -6,301; 6172,375; 0,57721
 490,87; 1701,731;   -5,231; 6348,361; 0,57080
 491,45; 1707,923;   -4,740; 6313,560; 0,56693
 492,04; 1730,659;   -5,340; 6340,105; 0,56291
 492,62; 1743,569;   -5,390; 6314,083; 0,55790
 493,20; 1797,703;   -6,350; 6415,203; 0,55139
 493,79; 1814,717;   -5,509; 6463,527; 0,55071
 494,37; 1858,217;   -5,178; 6507,342; 0,54344
 494,95; 1777,557;   -6,628; 6171,374; 0,53941
 495,54; 1880,961;   -5,176; 6469,700; 0,53566
 496,12; 2158,340;   -5,675; 7288,706; 0,52773
 496,71; 2000,398;   -5,614; 6666,914; 0,52196
 497,29; 1767,797;   -5,422; 5891,729; 0,52188
 497,87; 1759,401;   -6,430; 5798,743; 0,51687
 498,46; 1838,466;   -5,597; 6010,599; 0,51355
 499,04; 1963,925;   -5,305; 6347,771; 0,50869
 499,62; 2038,537;   -5,942; 6544,327; 0,50568
 500,21; 1951,741;   -5,269; 6182,690; 0,49995
 500,79; 2050,688;   -6,327; 6417,029; 0,49452
 501,37; 2167,124;   -5,423; 6686,691; 0,48859
 501,96; 2193,208;   -5,901; 6680,205; 0,48293
 502,54; 2205,535;   -6,678; 6682,801; 0,48057
 503,12; 2237,294;   -5,106; 6712,562; 0,47651
 503,71; 2171,854;   -5,764; 6464,629; 0,47295
 504,29; 2139,490;   -5,775; 6268,868; 0,46611
 504,87; 2160,329;   -5,514; 6299,845; 0,46408
 505,45; 2182,196;   -6,586; 6264,069; 0,45711
 506,04; 2272,390;   -4,997; 6454,053; 0,45273
 506,62; 2208,894;   -5,540; 6213,826; 0,44848
 507,20; 2099,130;   -5,923; 5852,170; 0,44449
 507,79; 2203,955;   -4,825; 6084,973; 0,44045
 508,37; 2227,796;   -6,718; 6041,976; 0,43248
 508,95; 2115,088;   -5,649; 5715,841; 0,43102
 509,53; 2124,724;   -5,461; 5652,775; 0,42426
 510,12; 2145,387;   -6,381; 5654,144; 0,42006
 510,70; 2114,727;   -4,871; 5500,669; 0,41455
 511,28; 2094,114;   -6,201; 5365,866; 0,40786
 511,87; 2013,816;   -5,601; 5102,333; 0,40302
 512,45; 2048,704;   -4,930; 5133,645; 0,39832
 513,03; 2087,672;   -6,110; 5163,833; 0,39255
 513,61; 2025,908;   -4,379; 5001,415; 0,39192
 514,20; 2032,835;   -5,840; 4934,271; 0,38439
 514,78; 1943,435;   -5,480; 4695,654; 0,38241
 515,36; 1967,585;   -5,400; 4714,476; 0,37881
 515,94; 2089,547;   -6,051; 4952,982; 0,37409
 516,52; 2117,672;   -5,531; 4996,635; 0,37217
 517,11; 2057,111;   -5,062; 4807,299; 0,36803
 517,69; 2014,450;   -6,431; 4657,681; 0,36323
 518,27; 2065,758;   -4,551; 4720,908; 0,35841
 518,85; 2232,424;   -5,623; 5007,126; 0,35021
 519,44; 2157,480;   -5,252; 4824,379; 0,34891
 520,02; 2038,457;   -5,503; 4508,552; 0,34409
 520,60; 2073,266;   -7,023; 4538,206; 0,33943
 521,18; 2141,932;   -4,952; 4676,183; 0,33854
 521,76; 2135,055;   -5,962; 4624,445; 0,33500
 522,35; 2272,992;   -6,323; 4827,822; 0,32652
 522,93; 2379,500;   -4,644; 5002,867; 0,32229
 523,51; 2510,450;   -5,803; 5216,490; 0,31711
 524,09; 2600,509;   -5,303; 5367,018; 0,31422
 524,67; 2615,525;   -4,774; 5336,400; 0,30929
 525,26; 2702,489;   -5,564; 5487,164; 0,30713
 525,84; 2844,800;   -5,124; 5740,235; 0,30448
 526,42; 3006,782;   -6,124; 5996,582; 0,29936
 527,00; 3133,809;   -5,324; 6209,059; 0,29659
 527,58; 3244,312;   -4,984; 6378,677; 0,29328
 528,16; 3530,628;   -6,584; 6869,422; 0,28868
 528,75; 3814,366;   -5,564; 7354,713; 0,28484
 529,33; 3812,483;   -5,805; 7288,636; 0,28112
 529,91; 3800,636;   -6,004; 7248,483; 0,28006
 530,49; 3827,211;   -5,105; 7249,364; 0,27714
 531,07; 3862,449;   -6,505; 7249,886; 0,27313
 531,65; 3908,167;   -5,196; 7262,562; 0,26885
 532,23; 3908,290;   -6,186; 7223,070; 0,26642
 532,82; 4101,471;   -5,326; 7515,592; 0,26277
 533,40; 4156,653;   -5,025; 7567,109; 0,25995
 533,98; 4121,414;   -6,466; 7460,698; 0,25743
 534,56; 4084,304;   -5,615; 7355,733; 0,25524
 535,14; 4009,992;   -5,656; 7197,373; 0,25376
 535,72; 3849,154;   -6,596; 6883,283; 0,25210
 536,30; 3690,603;   -4,916; 6572,589; 0,25039
 536,88; 3731,435;   -6,017; 6582,895; 0,24624
 537,47; 3953,617;   -5,516; 6896,022; 0,24135
 538,05; 4088,408;   -6,175; 7110,183; 0,24005
 538,63; 4183,798;   -6,707; 7221,311; 0,23675
 539,21; 4244,410;   -5,467; 7286,913; 0,23449
 539,79; 4226,419;   -5,496; 7232,795; 0,23310
 540,37; 4344,270;   -5,686; 7408,273; 0,23157
 540,95; 4562,197;   -5,287; 7706,093; 0,22746
 541,53; 4588,775;   -5,577; 7718,972; 0,22565
 542,11; 4641,063;   -4,717; 7773,725; 0,22383
 542,69; 4680,688;   -5,317; 7795,383; 0,22133
 543,27; 4759,919;   -6,257; 7881,175; 0,21877
 543,85; 4870,831;   -5,367; 8036,229; 0,21726
 544,44; 4934,330;   -6,668; 8088,136; 0,21439
 545,02; 4921,354;   -5,668; 8037,857; 0,21286
 545,60; 4806,385;   -5,067; 7816,820; 0,21104
 546,18; 4889,605;   -6,287; 7931,132; 0,20985
 546,76; 5154,135;   -5,077; 8319,622; 0,20779
 547,34; 5573,811;   -5,778; 8942,745; 0,20515
 547,92; 5807,512;   -5,957; 9290,577; 0,20389
 548,50; 5644,811;   -4,597; 9020,274; 0,20344
 549,08; 5606,324;   -6,019; 8924,891; 0,20175
 549,66; 5826,402;   -5,098; 9237,247; 0,20000
 550,24; 6057,036;   -6,058; 9561,317; 0,19810
 550,82; 6226,750;   -5,238; 9827,415; 0,19804
 551,40; 6705,132;   -4,698;10563,177; 0,19728
 551,98; 7226,771;   -6,458;11315,266; 0,19458
 552,56; 7339,647;   -5,309;11468,459; 0,19372
 553,14; 7542,365;   -5,679;11699,691; 0,19055
 553,72; 7741,097;   -6,089;11963,461; 0,18893
 554,30; 7883,041;   -5,538;12156,783; 0,18802
 554,88; 8283,399;   -6,619;12741,954; 0,18691
 555,46; 8619,764;   -5,939;13244,215; 0,18643
 556,04; 8750,834;   -4,859;13432,648; 0,18603
 556,62; 8785,001;   -6,480;13457,392; 0,18511
 557,20; 8961,633;   -5,259;13683,371; 0,18372
 557,78; 9118,449;   -5,599;13857,304; 0,18167
 558,36; 9146,811;   -6,149;13892,916; 0,18142
 558,94; 9281,178;   -4,869;14081,530; 0,18097
 559,52; 9570,636;   -6,810;14487,950; 0,17996
 560,10; 9885,205;   -5,170;14912,067; 0,17848
 560,68;10025,687;   -5,060;15124,269; 0,17849
 561,26;10032,252;   -5,420;15104,315; 0,17762
 561,84; 9984,256;   -5,130;15031,971; 0,17763
 562,42;10100,337;   -5,960;15174,640; 0,17670
 563,00;10318,979;   -5,560;15469,111; 0,17575
 563,58;10578,027;   -5,370;15874,423; 0,17622
 564,15;10754,002;   -6,211;16166,876; 0,17697
 564,73;10959,799;   -4,290;16481,963; 0,17715
 565,31;11175,235;   -6,271;16785,105; 0,17659
 565,89;11487,601;   -5,652;17217,510; 0,17567
 566,47;11740,424;   -4,850;17611,441; 0,17605
 567,05;12205,845;   -6,181;18218,225; 0,17387
 567,63;12431,564;   -5,081;18534,281; 0,17339
 568,21;12809,727;   -5,281;19056,668; 0,17245
 568,79;13244,490;   -6,331;19700,699; 0,17238
 569,37;13950,901;   -4,931;20708,613; 0,17150
 569,95;14281,260;   -6,731;21184,313; 0,17118
 570,53;14694,103;   -5,552;21746,553; 0,17019
 571,10;14985,954;   -5,382;22158,303; 0,16980
 571,68;15180,271;   -6,171;22408,137; 0,16907
 572,26;14597,710;   -4,731;21618,639; 0,17050
 572,84;15308,194;   -7,102;22659,338; 0,17026
 573,42;16120,007;   -5,392;23819,533; 0,16952
 574,00;16688,514;   -4,992;24589,145; 0,16828
 574,58;16605,396;   -6,152;24491,551; 0,16872
 575,16;15981,468;   -4,881;23595,354; 0,16917
 575,73;15780,480;   -5,992;23310,684; 0,16938
 576,31;16749,795;   -5,592;24668,932; 0,16809
 576,89;17327,848;   -5,022;25491,369; 0,16761
 577,47;18623,680;   -5,702;27379,082; 0,16731
 578,05;17920,150;   -4,282;26415,404; 0,16848
 578,63;16684,646;   -4,942;24660,639; 0,16965
 579,21;16706,047;   -6,662;24776,371; 0,17111
 579,78;17201,283;   -5,503;25506,709; 0,17105
 580,36;17683,154;   -6,163;26174,348; 0,17027
 580,94;19375,488;   -5,923;28615,838; 0,16931
 581,52;19930,229;   -5,182;29456,557; 0,16963
 582,10;18825,117;   -6,102;27951,281; 0,17162
 582,67;17608,771;   -4,663;26244,498; 0,17327
 583,25;17153,723;   -6,293;25580,957; 0,17351
 583,83;17558,750;   -5,803;26164,969; 0,17318
 584,41;18322,447;   -5,013;27253,434; 0,17240
 584,99;19001,719;   -5,803;28249,449; 0,17217
 585,57;18641,535;   -4,633;27796,434; 0,17347
 586,14;18249,031;   -5,783;27301,543; 0,17490
 586,72;18655,027;   -6,203;27968,902; 0,17583
 587,30;18802,449;   -4,793;28252,391; 0,17680
 587,88;18628,311;   -5,815;28006,383; 0,17704
 588,45;18623,570;   -5,154;27981,889; 0,17677
 589,03;18589,281;   -5,733;27917,920; 0,17658
 589,61;18820,453;   -5,994;28259,691; 0,17649
 590,19;18844,529;   -5,124;28374,166; 0,17770
 590,77;18906,227;   -6,314;28497,256; 0,17815
 591,34;19108,898;   -5,234;28846,102; 0,17881
 591,92;19321,053;   -4,975;29197,197; 0,17927
 592,50;19838,002;   -6,265;30020,445; 0,17987
 593,08;19890,633;   -5,385;30221,650; 0,18163
 593,65;19767,588;   -6,034;30235,736; 0,18452
 594,23;19759,656;   -6,454;30337,910; 0,18616
 594,81;19950,631;   -4,885;30691,295; 0,18702
 595,39;20029,344;   -6,545;30836,182; 0,18734
 595,96;20127,494;   -4,884;30938,432; 0,18667
 596,54;20250,891;   -5,515;31126,789; 0,18665
 597,12;20418,029;   -5,885;31436,504; 0,18738
 597,69;20443,863;   -5,285;31561,002; 0,18855
 598,27;20599,967;   -5,705;31799,713; 0,18851
 598,85;20716,549;   -5,105;32061,277; 0,18963
 599,43;20610,475;   -5,355;32043,008; 0,19161
 600,00;20660,285;   -5,905;32201,543; 0,19270
 600,58;20693,609;   -4,654;32310,578; 0,19347
 601,16;20695,650;   -5,885;32374,113; 0,19427
 601,73;20764,996;   -5,716;32526,160; 0,19486
 602,31;20884,525;   -5,545;32726,684; 0,19504
 602,89;21005,891;   -5,966;32916,816; 0,19503
 603,46;21038,195;   -5,295;33029,020; 0,19585
 604,04;21005,453;   -5,606;33021,066; 0,19642
 604,62;20962,088;   -6,296;33018,617; 0,19728
 605,19;21051,254;   -4,525;33195,797; 0,19777
 605,77;21103,469;   -6,096;33302,566; 0,19808
 606,35;21066,844;   -5,126;33285,250; 0,19861
 606,92;21180,850;   -5,396;33424,480; 0,19808
 607,50;21207,611;   -5,196;33525,754; 0,19885
 608,08;21204,715;   -4,336;33654,887; 0,20058
 608,65;21203,578;   -5,296;33810,453; 0,20260
 609,23;21157,410;   -5,436;33905,449; 0,20477
 609,81;21226,105;   -4,956;34115,738; 0,20605
 610,38;21082,641;   -5,646;34009,875; 0,20764
 610,96;20982,904;   -4,966;33969,813; 0,20919
 611,54;20934,549;   -5,705;34030,965; 0,21097
 612,11;20917,328;   -5,017;34058,398; 0,21168
 612,69;20967,605;   -4,536;34157,023; 0,21189
 613,26;20989,742;   -6,607;34231,832; 0,21237
 613,84;20927,900;   -5,106;34216,586; 0,21347
 614,42;20896,635;   -5,087;34217,250; 0,21413
 614,99;20858,750;   -5,846;34303,781; 0,21601
 615,57;20748,523;   -5,876;34202,965; 0,21703
 616,14;20679,873;   -6,566;34139,426; 0,21765
 616,72;20607,773;   -4,937;34105,020; 0,21875
 617,30;20502,545;   -5,647;34026,531; 0,21996
 617,87;20427,238;   -6,126;33964,781; 0,22077
 618,45;20298,217;   -5,407;33726,898; 0,22047
 619,02;20202,199;   -5,337;33592,234; 0,22079
 619,60;20202,361;   -5,867;33661,590; 0,22168
 620,17;20113,764;   -5,037;33589,957; 0,22267
 620,75;19967,074;   -6,047;33403,430; 0,22342
 621,33;20066,811;   -4,827;33614,207; 0,22400
 621,90;20137,619;   -5,407;33758,477; 0,22433
 622,48;20166,914;   -5,797;33895,875; 0,22546
 623,05;20239,453;   -5,167;34212,973; 0,22795
 623,63;20180,043;   -6,027;34280,934; 0,23008
 624,20;20215,783;   -5,077;34415,250; 0,23102
 624,78;20275,021;   -5,047;34565,383; 0,23164
 625,35;20288,762;   -6,477;34663,781; 0,23256
 625,93;20340,814;   -4,337;34815,492; 0,23337
 626,50;20441,570;   -5,677;35065,953; 0,23432
 627,08;20537,553;   -5,237;35309,902; 0,23530
 627,66;20567,258;   -4,747;35386,758; 0,23562
 628,23;20627,521;   -6,367;35601,395; 0,23696
 628,81;20703,168;   -5,317;35781,090; 0,23757
 629,38;20743,867;   -5,137;35950,871; 0,23877
 629,96;20797,775;   -5,147;36156,801; 0,24013
 630,53;20859,361;   -4,887;36266,859; 0,24017
 631,11;20970,857;   -6,568;36423,930; 0,23971
 631,68;21120,580;   -4,648;36687,426; 0,23977
 632,26;21202,213;   -4,797;36837,020; 0,23986
 632,83;21356,480;   -6,187;37117,559; 0,24000
 633,40;21494,463;   -4,958;37483,723; 0,24147
 633,98;21588,871;   -5,998;37757,191; 0,24272
 634,55;21640,041;   -5,107;37964,430; 0,24407
 635,13;21793,680;   -5,507;38314,230; 0,24498
 635,70;21907,645;   -6,068;38525,438; 0,24510
 636,28;21977,482;   -4,978;38645,496; 0,24508
 636,85;22032,076;   -5,678;38847,813; 0,24626
 637,43;22055,096;   -5,408;38916,008; 0,24657
 638,00;22074,762;   -5,358;38930,801; 0,24635
 638,58;22153,229;   -5,778;38989,289; 0,24546
 639,15;22167,285;   -4,888;39035,910; 0,24571
 639,73;22130,240;   -5,457;39105,539; 0,24721
 640,30;22166,184;   -5,557;39244,469; 0,24804
 640,87;22174,664;   -4,597;39407,160; 0,24968
 641,45;22137,693;   -5,927;39464,793; 0,25103
 642,02;22201,334;   -5,187;39624,602; 0,25154
 642,60;22249,434;   -5,537;39730,523; 0,25176
 643,17;22237,213;   -5,838;39732,375; 0,25201
 643,74;22284,633;   -3,848;39761,227; 0,25142
 644,32;22298,104;   -5,848;39815,059; 0,25173
 644,89;22261,252;   -5,498;39779,844; 0,25207
 645,47;22255,033;   -4,798;39817,582; 0,25261
 646,04;22322,543;   -6,048;39871,164; 0,25186
 646,61;22272,412;   -5,138;39724,426; 0,25125
 647,19;22274,063;   -5,138;39656,180; 0,25047
 647,76;22306,512;   -5,528;39725,359; 0,25059
 648,34;22314,451;   -5,788;39674,852; 0,24988
 648,91;22350,561;   -5,938;39735,293; 0,24984
 649,48;22456,340;   -5,368;39887,566; 0,24945
 650,06;22476,451;   -5,098;39902,090; 0,24922
 650,63;22517,811;   -5,748;39949,398; 0,24894
 651,20;22635,311;   -5,108;40151,242; 0,24887
 651,78;22742,980;   -5,678;40337,512; 0,24881
 652,35;22850,340;   -4,928;40502,645; 0,24855
 652,92;22998,789;   -5,438;40844,039; 0,24938
 653,50;23160,439;   -6,088;41190,367; 0,25000
 654,07;23222,689;   -5,318;41411,699; 0,25117
 654,64;23681,428;   -5,698;42223,734; 0,25110
 655,22;27021,078;   -5,298;47908,813; 0,24868
 655,79;34079,789;   -4,518;59907,387; 0,24496
 656,36;27247,537;   -6,018;48363,180; 0,24915
 656,94;24556,008;   -4,738;43726,141; 0,25055
 657,51;24330,717;   -6,168;43362,992; 0,25092
 658,08;24419,406;   -5,348;43479,805; 0,25051
 658,66;24655,477;   -4,778;43744,594; 0,24897
 659,23;24834,236;   -5,718;43910,285; 0,24747
 659,80;24930,816;   -4,968;43950,770; 0,24619
 660,38;25065,646;   -5,458;44000,449; 0,24434
 660,95;25139,695;   -6,048;43945,781; 0,24251
 661,52;25053,045;   -5,428;43711,605; 0,24170
 662,09;25024,695;   -5,988;43549,957; 0,24057
 662,67;25066,725;   -5,058;43600,227; 0,24035
 663,24;25072,016;   -5,578;43539,398; 0,23965
 663,81;25059,225;   -6,198;43463,953; 0,23912
 664,39;25170,754;   -5,468;43552,375; 0,23808
 664,96;25255,885;   -5,049;43657,215; 0,23766
 665,53;25305,754;   -5,139;43570,188; 0,23593
 666,10;25403,744;   -4,899;43619,609; 0,23475
 666,68;25488,473;   -6,489;43691,301; 0,23401
 667,25;25531,982;   -5,269;43711,031; 0,23347
 667,82;25654,912;   -5,319;43810,574; 0,23237
 668,39;25877,143;   -5,599;44005,746; 0,23055
 668,96;25951,023;   -5,029;44028,848; 0,22955
 669,54;25967,553;   -6,519;43972,551; 0,22871
 670,11;26090,352;   -5,529;44091,742; 0,22784
 670,68;26203,053;   -5,309;44135,715; 0,22640
 671,25;26313,682;   -5,849;44145,996; 0,22467
 671,83;26504,422;   -4,909;44196,035; 0,22203
 672,40;26682,002;   -5,959;44310,129; 0,22025
 672,97;26716,920;   -4,849;44147,711; 0,21809
 673,54;26816,900;   -5,809;44112,422; 0,21612
 674,11;27001,311;   -6,439;44230,422; 0,21430
 674,69;27116,770;   -4,969;44286,926; 0,21301
 675,26;27234,879;   -5,029;44326,566; 0,21151
 675,83;27421,270;   -5,669;44450,930; 0,20976
 676,40;27599,010;   -4,949;44721,070; 0,20959
 676,97;27672,199;   -5,479;44714,254; 0,20837
 677,54;27829,648;   -5,179;44804,613; 0,20678
 678,12;28074,248;   -5,239;44988,996; 0,20477
 678,69;28133,668;   -5,409;44958,219; 0,20355
 679,26;28174,479;   -4,619;44817,000; 0,20156
 679,83;28366,658;   -5,539;44924,633; 0,19965
 680,40;28509,357;   -5,619;45033,453; 0,19852
 680,97;28551,688;   -4,909;44956,797; 0,19714
 681,55;28618,137;   -5,479;44867,137; 0,19526
 682,12;28782,688;   -4,979;44981,488; 0,19388
 682,69;28929,076;   -6,219;45076,262; 0,19258
 683,26;29076,766;   -5,969;45086,891; 0,19047
 683,83;29281,197;   -4,989;45244,363; 0,18895
 684,40;29513,396;   -6,679;45402,855; 0,18703
 684,97;29639,576;   -5,179;45442,277; 0,18556
 685,54;29785,305;   -5,689;45511,148; 0,18409
 686,12;30040,416;   -5,479;45730,152; 0,18247
 686,69;30315,234;   -4,980;45886,164; 0,18000
 687,26;30490,426;   -5,950;45951,195; 0,17810
 687,83;30686,195;   -5,050;46066,496; 0,17642
 688,40;30873,514;   -5,470;46209,840; 0,17512
 688,97;30915,273;   -5,960;46232,340; 0,17475
 689,54;31083,844;   -5,300;46357,801; 0,17356
 690,11;31373,623;   -6,250;46643,625; 0,17220
 690,68;31686,143;   -5,400;46813,645; 0,16948
 691,25;31859,902;   -5,420;46777,496; 0,16677
 691,82;31947,504;   -6,050;46705,238; 0,16490
 692,40;32116,553;   -5,140;46756,352; 0,16309
 692,97;32164,363;   -4,870;46629,453; 0,16126
 693,54;32178,553;   -5,650;46399,055; 0,15892
 694,11;32332,152;   -5,300;46419,125; 0,15704
 694,68;32518,432;   -6,540;46562,289; 0,15588
 695,25;32563,092;   -5,650;46532,109; 0,15500
 695,82;32614,061;   -5,280;46524,621; 0,15426
 696,39;32836,672;   -6,200;46688,563; 0,15283
 696,96;33045,242;   -4,800;46778,785; 0,15092
 697,53;32986,391;   -6,120;46454,605; 0,14867
 698,10;33050,141;   -5,320;46410,527; 0,14742
 698,67;33211,898;   -4,350;46558,262; 0,14669
 699,24;33289,719;   -5,710;46446,453; 0,14462
 699,81;33312,949;   -5,270;46193,824; 0,14195
 700,38;33515,180;   -5,510;46181,805; 0,13921
 700,95;33792,980;   -5,260;46282,520; 0,13657
 701,52;33929,180;   -4,720;46299,719; 0,13499
 702,09;33982,688;   -6,100;46239,230; 0,13373
 702,66;34173,508;   -4,670;46350,172; 0,13235
 703,23;34256,629;   -5,280;46434,184; 0,13208
 703,80;34162,688;   -5,570;46247,906; 0,13152
 704,37;34132,086;   -5,220;46120,301; 0,13071
 704,94;34200,797;   -5,510;46043,242; 0,12911
 705,51;34209,637;   -4,800;45877,793; 0,12744
 706,08;34149,367;   -4,680;45542,676; 0,12502
 706,65;34222,137;   -5,980;45467,367; 0,12337
 707,22;34429,285;   -4,640;45642,496; 0,12243
 707,79;34519,668;   -5,800;45691,359; 0,12175
 708,36;34528,258;   -4,851;45596,832; 0,12075
 708,93;34654,746;   -4,991;45652,863; 0,11969
 709,50;34876,676;   -6,561;45877,094; 0,11904
 710,06;34985,266;   -5,471;45855,066; 0,11749
 710,63;34982,484;   -5,251;45682,398; 0,11588
 711,20;35114,926;   -6,231;45564,570; 0,11312
 711,77;35290,477;   -4,751;45561,492; 0,11093
 712,34;35258,195;   -5,991;45392,723; 0,10971
 712,91;35223,254;   -5,191;45279,695; 0,10906
 713,48;35418,992;   -4,691;45484,219; 0,10861
 714,05;35575,145;   -6,271;45650,598; 0,10828
 714,62;35474,402;   -5,051;45533,570; 0,10840
 715,19;35453,613;   -6,021;45405,395; 0,10743
 715,76;35600,191;   -5,361;45541,773; 0,10694
 716,33;35707,242;   -5,301;45591,125; 0,10611
 716,89;35552,492;   -5,911;45306,930; 0,10528
 717,46;35463,570;   -4,571;45008,891; 0,10350
 718,03;35614,371;   -5,961;44980,402; 0,10138
 718,60;35642,273;   -5,121;44920,984; 0,10047
 719,17;35522,230;   -5,051;44753,344; 0,10031
 719,74;35416,859;   -5,911;44566,977; 0,09979
 720,31;35433,902;   -5,171;44553,211; 0,09945
 720,88;35436,781;   -5,761;44463,781; 0,09854
 721,44;35267,313;   -5,201;44138,492; 0,09743
 722,01;35361,262;   -4,541;44012,246; 0,09503
 722,58;35694,191;   -5,661;44209,078; 0,09290
 723,15;35962,180;   -4,671;44355,207; 0,09109
 723,72;35957,441;   -4,801;44311,578; 0,09072
 724,29;36106,980;   -6,001;44298,102; 0,08878
 724,85;36392,738;   -4,761;44524,223; 0,08757
 725,42;36581,680;   -6,031;44710,734; 0,08714
 725,99;36542,047;   -4,761;44669,688; 0,08721
 726,56;36628,320;   -5,411;44757,578; 0,08704
 727,13;36819,199;   -5,681;44906,352; 0,08622
 727,69;37010,270;   -4,961;45009,281; 0,08497
 728,26;36961,039;   -5,111;44915,223; 0,08464
 728,83;36985,176;   -5,511;44816,277; 0,08340
 729,40;37184,867;   -5,541;44921,879; 0,08208
 729,97;37326,598;   -6,032;45020,770; 0,08138
 730,53;37240,148;   -5,402;44874,422; 0,08098
 731,10;37225,027;   -4,512;44811,852; 0,08055
 731,67;37426,938;   -5,712;44959,625; 0,07963
 732,24;37620,977;   -4,702;45113,547; 0,07887
 732,81;37660,785;   -5,592;45115,777; 0,07843
 733,37;37792,234;   -5,042;45168,430; 0,07742
 733,94;38171,055;   -4,992;45505,602; 0,07632
 734,51;38387,695;   -5,552;45649,613; 0,07524
 735,08;38317,895;   -5,732;45490,277; 0,07451
 735,64;38320,406;   -6,292;45378,117; 0,07341
 736,21;38479,895;   -5,942;45454,059; 0,07233
 736,78;38582,492;   -5,342;45510,570; 0,07171
 737,35;38459,375;   -7,022;45256,254; 0,07066
 737,91;38168,453;   -4,782;44903,227; 0,07056
 738,48;38106,273;   -5,472;44888,516; 0,07113
 739,05;38179,992;   -5,602;45079,168; 0,07213
 739,61;38073,043;   -5,602;44996,270; 0,07255
 740,18;37907,453;   -6,122;44832,754; 0,07286
 740,75;37998,973;   -4,852;44910,625; 0,07257
 741,32;38106,164;   -4,692;45035,527; 0,07255
 741,88;38079,230;   -6,012;44938,238; 0,07192
 742,45;37967,883;   -4,772;44701,859; 0,07090
 743,02;38025,852;   -6,192;44621,141; 0,06945
 743,58;38242,313;   -5,452;44764,633; 0,06838
 744,15;38346,191;   -4,502;44852,504; 0,06806
 744,72;38161,063;   -6,092;44662,477; 0,06831
 745,28;38059,629;   -4,912;44553,297; 0,06841
 745,85;38244,992;   -5,452;44677,809; 0,06751
 746,42;38407,109;   -5,892;44842,652; 0,06727
 746,98;38379,480;   -5,002;44730,605; 0,06650
 747,55;38282,121;   -6,262;44544,027; 0,06578
 748,12;38349,188;   -4,832;44544,086; 0,06503
 748,68;38498,289;   -5,092;44603,961; 0,06392
 749,25;38502,449;   -5,802;44526,082; 0,06312
 749,82;38412,680;   -4,812;44249,402; 0,06143
 750,38;38463,520;   -5,772;44185,926; 0,06023
 750,95;38627,578;   -5,272;44254,977; 0,05906
 751,52;38632,227;   -4,753;44283,227; 0,05928
 752,08;38463,586;   -5,843;44057,629; 0,05896
 752,65;38488,438;   -4,533;44002,750; 0,05814
 753,21;38743,027;   -5,663;44167,754; 0,05690
 753,78;38854,766;   -5,483;44203,996; 0,05601
 754,35;38595,727;   -5,693;43891,758; 0,05584
 754,91;38411,215;   -6,053;43787,809; 0,05689
 755,48;38413,055;   -5,223;43920,641; 0,05818
 756,04;38490,824;   -5,293;44075,223; 0,05883
 756,61;38485,117;   -5,713;44123,426; 0,05937
 757,18;38499,555;   -5,073;44063,766; 0,05862
 757,74;38615,016;   -6,063;44190,398; 0,05856
 758,31;38739,625;   -5,583;44313,250; 0,05837
 758,87;38834,305;   -4,963;44491,910; 0,05906
 759,44;38784,555;   -6,113;44482,645; 0,05952
 760,00;38834,445;   -4,823;44505,086; 0,05919
 760,57;39071,313;   -5,493;44625,605; 0,05772
 761,14;38957,965;   -4,583;44475,027; 0,05751
 761,70;38628,645;   -4,803;44063,211; 0,05716
 762,27;38444,012;   -5,933;43763,422; 0,05627
 762,83;38524,664;   -5,543;43757,605; 0,05531
 763,40;38658,863;   -5,013;43878,387; 0,05499
 763,96;38582,813;   -5,573;43753,117; 0,05461
 764,53;38419,594;   -5,093;43570,059; 0,05463
 765,09;38207,461;   -5,623;43310,590; 0,05444
 765,66;38184,184;   -4,733;43275,055; 0,05435
 766,22;38203,113;   -5,233;43315,633; 0,05454
 766,79;38023,543;   -5,183;43190,805; 0,05533
 767,35;38038,891;   -5,293;43248,680; 0,05574
 767,92;38271,242;   -5,923;43566,801; 0,05627
 768,48;38644,020;   -5,443;43985,102; 0,05622
 769,05;38725,059;   -5,133;43961,633; 0,05507
 769,61;38656,621;   -5,393;43748,035; 0,05373
 770,18;38789,871;   -4,983;43759,477; 0,05235
 770,74;39068,250;   -5,633;43959,730; 0,05122
 771,31;39249,859;   -5,543;44043,750; 0,05004
 771,87;39102,629;   -4,923;43849,793; 0,04976
 772,44;39041,098;   -6,003;43798,504; 0,04993
 773,00;39033,938;   -5,354;43913,855; 0,05115
 773,57;39157,270;   -5,234;44153,477; 0,05215
 774,13;38954,707;   -5,994;44016,199; 0,05304
 774,70;38618,977;   -4,164;43758,703; 0,05426
 775,26;38470,199;   -6,414;43509,012; 0,05345
 775,82;38663,656;   -4,674;43542,926; 0,05161
 776,39;38843,148;   -4,844;43609,207; 0,05026
 776,95;38809,547;   -5,964;43486,359; 0,04941
 777,52;38739,176;   -4,744;43383,500; 0,04917
 778,08;38906,668;   -5,954;43525,363; 0,04871
 778,65;39246,246;   -4,994;43801,293; 0,04768
 779,21;39453,785;   -5,044;43972,348; 0,04709
 779,77;39329,586;   -5,914;43830,680; 0,04705
 780,34;39181,598;   -4,244;43721,148; 0,04760
 780,90;39413,406;   -4,554;43957,641; 0,04739
 781,47;39639,246;   -6,154;44215,672; 0,04744
 782,03;39727,656;   -4,444;44148,203; 0,04582
 782,59;39611,977;   -5,664;43846,797; 0,04411
 783,16;39577,246;   -4,824;43672,539; 0,04276
 783,72;39644,215;   -5,424;43719,699; 0,04249
 784,29;39657,293;   -5,574;43789,492; 0,04304
 784,85;39480,555;   -4,954;43745,695; 0,04455
 785,41;39197,805;   -5,694;43591,086; 0,04613
 785,98;39121,723;   -4,784;43593,367; 0,04700
 786,54;39222,543;   -4,644;43773,340; 0,04767
 787,10;39181,832;   -5,644;43818,430; 0,04857
 787,67;39029,645;   -4,404;43606,613; 0,04815
 788,23;38968,273;   -5,524;43408,066; 0,04685
 788,79;39175,672;   -5,634;43470,785; 0,04517
 789,36;39334,004;   -4,454;43539,297; 0,04411
 789,92;39450,953;   -5,354;43566,641; 0,04309
 790,48;39345,402;   -4,844;43362,801; 0,04222
 791,05;39264,133;   -5,784;43280,723; 0,04229
 791,61;39309,789;   -5,664;43327,555; 0,04226
 792,17;39416,191;   -4,964;43429,148; 0,04210
 792,74;39183,199;   -5,864;43163,668; 0,04201
 793,30;38813,539;   -4,904;42646,609; 0,04090
 793,86;38568,379;   -4,644;42269,742; 0,03979
 794,43;38429,180;   -5,055;41999,496; 0,03858
 794,99;38342,039;   -4,985;41955,996; 0,03911
 795,55;38057,699;   -5,415;41724,008; 0,03994
 796,11;37741,199;   -5,145;41453,000; 0,04073
 796,68;37623,898;   -5,205;41371,672; 0,04123
 797,24;37734,879;   -6,195;41473,324; 0,04102
 797,80;37862,637;   -5,505;41580,066; 0,04067
 798,36;37707,840;   -5,525;41385,867; 0,04041
 798,93;37487,387;   -5,205;41075,668; 0,03969
 799,49;37365,977;   -4,645;40932,609; 0,03959
 800,05;37416,168;   -5,805;41025,094; 0,03998
 800,61;37435,906;   -4,775;41037,625; 0,03989
 801,18;37337,586;   -4,815;40875,297; 0,03931
 801,74;37161,477;   -5,095;40608,328; 0,03852
 802,30;37221,605;   -5,085;40596,629; 0,03769
 802,86;37372,957;   -5,975;40733,551; 0,03739
 803,43;37415,508;   -4,545;40758,914; 0,03717
 803,99;37124,285;   -5,195;40529,305; 0,03811
 804,55;36829,457;   -6,165;40340,918; 0,03954
 805,11;36687,285;   -4,605;40242,910; 0,04017
 805,68;36811,637;   -5,225;40420,980; 0,04062
 806,24;36781,316;   -5,955;40434,281; 0,04112
 806,80;36481,035;   -5,105;40163,516; 0,04176
 807,36;36277,723;   -5,305;39896,617; 0,04129
 807,92;36305,504;   -4,355;39913,746; 0,04115
 808,48;36426,965;   -5,785;40002,750; 0,04066
 809,05;36480,703;   -5,805;39932,020; 0,03925
 809,61;36330,313;   -4,905;39685,941; 0,03836
 810,17;36146,754;   -6,065;39327,684; 0,03662
 810,73;36058,313;   -4,565;39232,586; 0,03664
 811,29;36138,652;   -5,145;39407,078; 0,03760
 811,85;36167,711;   -5,405;39562,602; 0,03896
 812,42;36089,141;   -4,665;39542,152; 0,03968
 812,98;35954,594;   -6,255;39436,426; 0,04014
 813,54;35913,551;   -5,145;39421,195; 0,04047
 814,10;35901,223;   -4,365;39398,406; 0,04036
 814,66;35926,000;   -5,365;39417,488; 0,04027
 815,22;35817,262;   -5,575;39166,301; 0,03881
 815,78;35703,141;   -4,936;38922,543; 0,03749
 816,35;35779,480;   -4,906;38927,695; 0,03662
 816,91;35867,531;   -4,846;38966,508; 0,03599
 817,47;35766,898;   -5,736;38840,129; 0,03579
 818,03;35584,770;   -4,786;38628,949; 0,03564
 818,59;35351,910;   -4,986;38324,633; 0,03506
 819,15;35356,488;   -5,156;38239,582; 0,03404
 819,71;35452,438;   -4,836;38263,184; 0,03313
 820,27;35662,527;   -6,046;38475,816; 0,03297
 820,83;35774,430;   -5,066;38549,750; 0,03244
 821,39;35582,129;   -5,396;38294,430; 0,03190
 821,96;35540,289;   -5,866;38203,301; 0,03137
 822,52;35758,398;   -5,506;38393,426; 0,03087
 823,08;35941,566;   -5,586;38616,195; 0,03117
 823,64;36077,668;   -5,266;38802,867; 0,03162
 824,20;36015,457;   -4,916;38735,602; 0,03162
 824,76;36089,918;   -5,386;38776,563; 0,03118
 825,32;36345,078;   -4,806;38995,422; 0,03056
 825,88;36665,297;   -5,026;39280,164; 0,02991
 826,44;36782,656;   -5,206;39420,785; 0,03008
 827,00;36719,605;   -4,536;39442,809; 0,03107
 827,56;36528,234;   -6,236;39329,859; 0,03209
 828,12;36477,336;   -4,626;39400,063; 0,03347
 828,68;36568,707;   -5,616;39576,402; 0,03432
 829,24;36619,914;   -6,196;39699,734; 0,03506
 829,80;36548,934;   -4,336;39594,387; 0,03475
 830,36;36380,023;   -5,436;39305,789; 0,03359
 830,92;36312,504;   -5,066;39161,832; 0,03280
 831,48;36451,063;   -5,186;39286,844; 0,03253
 832,04;36524,152;   -5,976;39406,656; 0,03298
 832,60;36442,332;   -4,976;39384,297; 0,03371
 833,16;36241,512;   -5,486;39142,637; 0,03344
 833,72;36068,652;   -5,616;38891,719; 0,03272
 834,28;36117,691;   -5,356;38925,934; 0,03251
 834,84;36240,113;   -5,936;39054,395; 0,03248
 835,40;36243,621;   -5,136;39089,105; 0,03282
 835,96;36144,121;   -4,866;38974,457; 0,03274
 836,52;35968,570;   -6,156;38824,859; 0,03318
 837,08;35994,172;   -4,907;38798,770; 0,03258
 837,64;36214,793;   -5,787;39016,293; 0,03236
 838,20;36332,910;   -4,967;39142,855; 0,03235
 838,76;36234,039;   -5,397;39095,258; 0,03300
 839,32;35991,629;   -5,837;38853,109; 0,03322
 839,88;35823,941;   -4,637;38704,121; 0,03358
 840,43;35799,891;   -5,167;38736,512; 0,03423
 840,99;35882,461;   -4,707;38950,223; 0,03562
 841,55;35902,668;   -4,467;39007,016; 0,03601
 842,11;35822,680;   -6,107;38941,277; 0,03625
 842,67;35714,039;   -4,957;38836,109; 0,03639
 843,23;35604,379;   -4,847;38795,211; 0,03727
 843,79;35716,039;   -5,627;38933,082; 0,03745
 844,35;35857,059;   -4,797;39106,523; 0,03767
 844,91;35789,359;   -5,327;39020,098; 0,03753
 845,47;35715,750;   -5,137;38787,840; 0,03583
 846,03;35623,430;   -4,827;38644,168; 0,03534
 846,58;35662,609;   -5,597;38636,832; 0,03478
 847,14;35825,078;   -4,857;38809,922; 0,03475
 847,70;35916,938;   -5,577;38856,207; 0,03416
 848,26;35727,648;   -4,477;38522,926; 0,03271
 848,82;35524,438;   -4,987;38306,770; 0,03274
 849,38;35438,328;   -5,117;38199,512; 0,03258
 849,94;35492,965;   -4,227;38289,582; 0,03293
 850,49;35570,355;   -5,307;38336,246; 0,03252
 851,05;35531,176;   -5,437;38278,227; 0,03234
 851,61;35381,887;   -4,807;38104,289; 0,03219
 852,17;35267,707;   -5,917;37975,840; 0,03212
 852,73;35279,727;   -4,697;37981,363; 0,03204
 853,29;35263,914;   -4,727;38045,773; 0,03297
 853,84;35135,766;   -5,737;37912,773; 0,03303
 854,40;35044,793;   -5,547;37783,059; 0,03267
 854,96;34807,055;   -5,887;37460,309; 0,03190
 855,52;34750,125;   -4,787;37351,109; 0,03134
 856,08;34840,324;   -5,047;37385,852; 0,03062
 856,63;34912,125;   -5,957;37439,523; 0,03035
 857,19;34882,113;   -4,427;37390,086; 0,03015
 857,75;34823,703;   -5,097;37256,918; 0,02933
 858,31;34640,723;   -5,218;36955,551; 0,02809
 858,86;34592,684;   -5,658;36844,090; 0,02738
 859,42;34681,023;   -6,188;36929,723; 0,02728
 859,98;34756,313;   -4,478;37046,805; 0,02771
 860,54;34609,871;   -5,018;37053,438; 0,02962
 861,10;34386,602;   -5,518;36950,789; 0,03123
 861,65;34219,063;   -4,918;36946,629; 0,03330
 862,21;34105,199;   -5,548;37039,613; 0,03584
 862,77;34172,441;   -5,368;37194,594; 0,03680
 863,32;34318,711;   -5,778;37373,895; 0,03703
 863,88;34235,539;   -5,318;37263,016; 0,03680
 864,44;34086,922;   -4,888;37006,219; 0,03568
 865,00;34035,699;   -5,568;36825,473; 0,03421
 865,55;34092,250;   -5,188;36883,801; 0,03418
 866,11;34260,199;   -4,998;37110,824; 0,03471
 866,67;34315,938;   -5,108;37269,137; 0,03585
 867,23;34235,648;   -5,008;37281,988; 0,03702
 867,78;34258,910;   -5,198;37288,180; 0,03679
 868,34;34179,457;   -4,698;37149,891; 0,03619
 868,90;34346,027;   -4,958;37183,242; 0,03447
 869,45;34577,977;   -6,148;37337,297; 0,03334
 870,01;34755,367;   -5,068;37401,766; 0,03187
 870,57;34953,598;   -5,238;37464,129; 0,03012
 871,12;34953,695;   -4,848;37460,152; 0,03007
 871,68;34946,516;   -4,808;37354,723; 0,02894
 872,24;35065,625;   -5,688;37388,254; 0,02785
 872,79;35271,727;   -5,388;37517,477; 0,02680
 873,35;35225,578;   -5,138;37447,277; 0,02656
 873,91;34981,336;   -5,808;37192,719; 0,02662
 874,46;34727,926;   -3,988;36942,762; 0,02685
 875,02;34530,477;   -5,728;36754,703; 0,02711
 875,57;34454,945;   -5,168;36700,484; 0,02742
 876,13;34369,316;   -4,928;36641,887; 0,02780
 876,69;34265,074;   -6,408;36526,758; 0,02775
 877,24;33858,523;   -4,538;36062,332; 0,02738
 877,80;33496,145;   -5,498;35658,051; 0,02716
 878,36;33144,363;   -5,608;35395,402; 0,02853
 878,91;32891,922;   -4,798;35239,316; 0,02993
 879,47;32663,203;   -5,159;35086,117; 0,03107
 880,02;32500,193;   -4,499;34992,359; 0,03208
 880,58;32240,732;   -4,919;34685,313; 0,03174
 881,14;32044,703;   -5,329;34452,492; 0,03146
 881,69;31891,553;   -4,989;34226,465; 0,03068
 882,25;31818,713;   -5,109;34110,238; 0,03020
 882,80;31807,602;   -4,929;34033,727; 0,02937
 883,36;31694,082;   -4,409;33866,391; 0,02879
 883,91;31538,152;   -5,169;33635,113; 0,02795
 884,47;31369,842;   -4,709;33431,652; 0,02764
 885,03;31258,900;   -4,649;33276,707; 0,02716
 885,58;31269,000;   -4,499;33289,816; 0,02719
 886,14;31244,570;   -4,989;33323,398; 0,02797
 886,69;31208,811;   -6,059;33446,730; 0,03007
 887,25;31028,461;   -4,119;33333,895; 0,03112
 887,80;30809,301;   -5,079;33192,836; 0,03236
 888,36;30794,580;   -4,729;33143,977; 0,03193
 888,91;30678,199;   -4,549;33051,137; 0,03235
 889,47;30716,699;   -5,189;33004,211; 0,03119
 890,02;30751,158;   -4,579;33045,090; 0,03124
 890,58;30719,309;   -5,159;33005,824; 0,03117
 891,13;30616,508;   -5,459;32830,906; 0,03032
 891,69;30603,938;   -4,059;32719,947; 0,02903
 892,24;30604,758;   -5,739;32620,578; 0,02770
 892,80;30718,588;   -5,029;32688,791; 0,02699
 893,35;30748,658;   -4,919;32754,582; 0,02744
 893,91;30674,127;   -5,619;32784,156; 0,02889
 894,46;30458,227;   -4,819;32613,676; 0,02969
 895,02;30236,027;   -4,639;32431,398; 0,03044
 895,57;30096,947;   -5,709;32260,100; 0,03014
 896,13;30073,277;   -5,309;32241,551; 0,03023
 896,68;30069,496;   -6,139;32162,244; 0,02921
 897,23;30005,006;   -5,089;32065,195; 0,02884
 897,79;29948,096;   -5,099;31927,326; 0,02779
 898,34;29751,836;   -5,719;31722,328; 0,02785
 898,90;29759,756;   -4,719;31736,121; 0,02792
 899,45;29851,375;   -5,289;31843,313; 0,02805
 900,01;29943,064;   -4,839;31929,424; 0,02789
 900,56;29960,324;   -4,980;31973,295; 0,02824
 901,11;29789,504;   -5,850;31856,387; 0,02913
 901,67;29594,773;   -5,210;31715,080; 0,03005
 902,22;29534,844;   -5,070;31668,650; 0,03029
 902,78;29466,953;   -5,830;31575,973; 0,03002
 903,33;29447,404;   -4,920;31541,734; 0,02983
 903,89;29406,883;   -5,900;31502,867; 0,02990
 904,44;29321,264;   -4,460;31402,268; 0,02977
 904,99;29170,363;   -4,880;31195,779; 0,02915
 905,55;28994,322;   -5,270;31006,352; 0,02913
 906,10;28878,111;   -4,970;30849,793; 0,02868
 906,65;28854,063;   -5,440;30762,055; 0,02780
 907,21;28759,152;   -5,020;30644,258; 0,02757
 907,76;28555,012;   -4,960;30418,439; 0,02745
 908,31;28294,381;   -6,510;30175,740; 0,02795
 908,87;27994,471;   -5,200;29855,354; 0,02794
 909,42;27788,660;   -4,610;29610,084; 0,02757
 909,97;27635,951;   -5,070;29437,336; 0,02742
 910,53;27589,041;   -4,320;29332,988; 0,02662
 911,08;27419,500;   -6,110;29142,410; 0,02646
 911,63;27203,619;   -4,490;28900,811; 0,02628
 912,19;26922,920;   -5,430;28568,350; 0,02576
 912,74;26755,850;   -5,440;28349,311; 0,02512
 913,29;26712,420;   -4,880;28241,689; 0,02417
 913,85;26656,520;   -5,750;28114,289; 0,02312
 914,40;26662,391;   -5,230;28059,369; 0,02217
 914,95;26499,561;   -5,360;27855,740; 0,02167
 915,51;26370,529;   -5,430;27688,859; 0,02118
 916,06;26157,820;   -4,460;27504,301; 0,02180
 916,61;26031,471;   -5,260;27446,359; 0,02298
 917,16;25913,670;   -4,930;27347,369; 0,02338
 917,72;25820,971;   -4,930;27273,510; 0,02376
 918,27;25717,539;   -5,970;27180,539; 0,02402
 918,82;25477,660;   -4,660;26929,051; 0,02406
 919,37;25233,150;   -5,140;26706,471; 0,02464
 919,93;25108,631;   -5,370;26555,461; 0,02433
 920,48;24915,301;   -4,230;26346,400; 0,02425
 921,03;24882,000;   -5,290;26273,160; 0,02362
 921,58;24810,180;   -4,510;26201,240; 0,02369
 922,14;24746,270;   -5,100;26098,779; 0,02311
 922,69;24666,520;   -5,470;26044,590; 0,02360
 923,24;24562,439;   -4,420;25983,211; 0,02442
 923,79;24488,850;   -6,020;25923,740; 0,02472
 924,35;24440,590;   -4,560;25882,850; 0,02490
 924,90;24523,301;   -4,380;25971,119; 0,02491
 925,45;24441,131;   -5,080;25826,961; 0,02395
 926,00;24408,430;   -5,040;25722,660; 0,02277
 926,55;24341,520;   -5,110;25582,410; 0,02159
 927,11;24243,869;   -5,350;25414,420; 0,02047
 927,66;24124,500;   -4,220;25247,381; 0,01975
 928,21;24005,820;   -5,550;25127,189; 0,01982
 928,76;23943,131;   -4,330;25051,930; 0,01966
 929,31;23794,449;   -5,040;24925,641; 0,02017
 929,86;23576,520;   -5,500;24724,920; 0,02065
 930,42;23388,670;   -5,540;24579,520; 0,02156
 930,97;23122,039;   -5,760;24345,670; 0,02239
 931,52;22883,859;   -4,970;24145,119; 0,02330
 932,07;22704,670;   -5,170;24003,340; 0,02415
 932,62;22581,949;   -5,510;23894,689; 0,02453
 933,17;22355,320;   -4,710;23685,830; 0,02510
 933,72;22093,400;   -5,310;23420,551; 0,02533
 934,28;21777,449;   -5,240;23115,350; 0,02589
 934,83;21561,881;   -5,530;22900,410; 0,02615
 935,38;21381,311;   -5,930;22660,900; 0,02524
 935,93;21249,230;   -5,140;22489,820; 0,02464
 936,48;21088,000;   -5,500;22336,279; 0,02497
 937,03;20921,279;   -4,860;22110,240; 0,02400
 937,58;20713,789;   -5,410;21884,510; 0,02387
 938,13;20546,330;   -6,070;21716,670; 0,02405
 938,68;20346,119;   -4,950;21540,410; 0,02477
 939,23;20210,420;   -4,580;21427,689; 0,02539
 939,79;20021,080;   -5,480;21280,699; 0,02649
 940,34;19882,080;   -4,500;21142,160; 0,02668
 940,89;19678,131;   -5,470;20917,990; 0,02653
 941,44;19479,930;   -5,150;20706,760; 0,02652
 941,99;19248,391;   -4,670;20467,449; 0,02666
 942,54;18981,789;   -5,500;20177,689; 0,02653
 943,09;18869,039;   -4,680;20025,730; 0,02583
 943,64;18710,740;   -5,570;19824,090; 0,02510
 944,19;18518,279;   -5,140;19637,301; 0,02547
 944,74;18317,660;   -4,980;19446,000; 0,02595
 945,29;18060,250;   -5,560;19217,920; 0,02697
 945,84;17868,150;   -4,350;19011,859; 0,02694
 946,39;17670,029;   -5,300;18799,990; 0,02691
 946,94;17450,721;   -5,090;18572,160; 0,02704
 947,49;17316,900;   -4,700;18422,939; 0,02688
 948,04;17183,000;   -6,080;18272,061; 0,02668
 948,59;17031,160;   -5,110;18116,920; 0,02683
 949,14;16831,699;   -4,710;17869,471; 0,02598
 949,69;16559,150;   -5,710;17574,100; 0,02583
 950,24;16302,950;   -4,180;17324,609; 0,02639
 950,79;16095,080;   -5,650;17123,811; 0,02690
 951,34;15913,450;   -4,720;16961,840; 0,02770
 951,89;15685,980;   -4,460;16723,930; 0,02782
 952,44;15473,270;   -5,100;16516,971; 0,02834
 952,99;15243,350;   -3,670;16253,390; 0,02786
 953,54;14997,990;   -5,300;15971,900; 0,02731
 954,09;14815,810;   -4,840;15769,830; 0,02709
 954,64;14643,590;   -5,130;15574,800; 0,02677
 955,19;14479,420;   -5,340;15387,610; 0,02641
 955,74;14352,040;   -4,830;15213,640; 0,02531
 956,28;14203,170;   -4,870;14995,730; 0,02357
 956,83;14042,360;   -5,150;14819,720; 0,02339
 957,38;13841,260;   -4,500;14589,310; 0,02285
 957,93;13671,340;   -5,770;14417,060; 0,02306
 958,48;13524,420;   -5,030;14284,860; 0,02375
 959,03;13411,090;   -4,870;14180,220; 0,02421
 959,58;13299,400;   -4,490;14081,430; 0,02481
 960,13;13184,120;   -4,980;13963,440; 0,02493
 960,68;13126,840;   -5,960;13888,330; 0,02448
 961,23;13013,050;   -5,000;13806,710; 0,02570
 961,77;12871,550;   -4,940;13689,230; 0,02674
 962,32;12752,210;   -5,550;13576,950; 0,02721
 962,87;12672,410;   -4,320;13471,770; 0,02656
 963,42;12571,970;   -5,400;13373,600; 0,02683
 963,97;12505,290;   -5,090;13320,490; 0,02742
 964,52;12400,840;   -5,040;13233,770; 0,02822
 965,07;12289,960;   -5,480;13139,140; 0,02900
 965,61;12186,690;   -4,530;13049,200; 0,02969
 966,16;12114,970;   -5,150;12968,570; 0,02956
 966,71;12047,560;   -6,070;12905,060; 0,02985
 967,26;12004,870;   -4,660;12866,440; 0,03009
 967,81;11955,210;   -5,190;12819,900; 0,03031
 968,36;11907,900;   -4,700;12776,530; 0,03057
 968,90;11851,120;   -5,810;12697,970; 0,02996
 969,45;11789,070;   -5,810;12611,740; 0,02928
 970,00;11707,950;   -5,220;12518,540; 0,02906
 970,55;11650,830;   -4,600;12450,120; 0,02881
 971,10;11609,010;   -5,030;12367,680; 0,02748
 971,64;11554,770;   -4,620;12297,100; 0,02703
 972,19;11499,990;   -5,180;12199,910; 0,02565
 972,74;11417,480;   -4,560;12099,380; 0,02518
 973,29;11281,380;   -5,230;11933,060; 0,02438
 973,84;11194,950;   -5,750;11835,570; 0,02415
 974,38;11094,730;   -4,430;11777,490; 0,02593
 974,93;11031,670;   -5,850;11711,200; 0,02595
 975,48;10961,860;   -4,870;11657,390; 0,02671
 976,03;10883,190;   -4,730;11587,260; 0,02721
 976,57;10774,870;   -5,240;11476,190; 0,02737
 977,12;10663,890;   -5,340;11359,030; 0,02741
 977,67;10552,250;   -5,390;11265,920; 0,02841
 978,21;10499,480;   -5,020;11183,280; 0,02739
 978,76;10404,940;   -4,960;11103,530; 0,02821
 979,31;10377,270;   -5,630;11064,090; 0,02782
 979,86;10323,920;   -5,210;10985,690; 0,02697
 980,40;10288,520;   -4,900;10942,770; 0,02676
 980,95;10199,270;   -5,120;10831,750; 0,02612
 981,50;10134,040;   -4,710;10757,840; 0,02593
 982,04;10043,650;   -5,870;10667,910; 0,02617
 982,59; 9981,840;   -4,360;10592,560; 0,02578
 983,14; 9912,730;   -5,050;10502,170; 0,02507
 983,68; 9839,020;   -5,460;10419,890; 0,02490
 984,23; 9759,960;   -4,330;10327,580; 0,02454
 984,78; 9683,060;   -4,780;10236,280; 0,02412
 985,32; 9582,010;   -4,930;10112,650; 0,02340
 985,87; 9488,690;   -5,030;10029,190; 0,02405
 986,42; 9396,070;   -6,270; 9927,000; 0,02386
 986,96; 9313,900;   -4,460; 9838,660; 0,02379
 987,51; 9257,830;   -5,750; 9794,440; 0,02446
 988,06; 9186,050;   -5,040; 9726,440; 0,02481
 988,60; 9101,870;   -4,740; 9637,290; 0,02481
 989,15; 9074,290;   -5,460; 9602,110; 0,02454
 989,70; 9039,330;   -4,730; 9561,860; 0,02439
 990,24; 8993,580;   -5,300; 9500,460; 0,02380
 990,79; 8905,100;   -5,450; 9410,040; 0,02394
 991,33; 8826,320;   -4,830; 9315,630; 0,02342
 991,88; 8793,110;   -5,090; 9282,230; 0,02350
 992,43; 8753,620;   -4,940; 9235,610; 0,02327
 992,97; 8722,050;   -4,720; 9184,170; 0,02241
 993,52; 8644,720;   -5,240; 9101,660; 0,02236
 994,06; 8580,520;   -4,620; 9032,690; 0,02229
 994,61; 8534,130;   -5,490; 8982,110; 0,02221
 995,16; 8474,960;   -5,060; 8923,790; 0,02240
 995,70; 8417,540;   -4,670; 8860,330; 0,02225
 996,25; 8370,130;   -5,720; 8834,270; 0,02342
 996,79; 8320,360;   -4,260; 8784,430; 0,02356
 997,34; 8274,140;   -4,450; 8734,330; 0,02349
 997,88; 8223,920;   -4,810; 8687,500; 0,02380
 998,43; 8160,080;   -5,570; 8627,480; 0,02417
 998,97; 8095,760;   -6,100; 8545,910; 0,02348
 999,52; 8019,580;   -5,230; 8473,600; 0,02390
1000,06; 7956,030;   -5,150; 8406,030; 0,02388
1000,61; 7935,880;   -5,520; 8378,800; 0,02357
1001,15; 7912,940;   -4,500; 8355,760; 0,02363
1001,70; 7882,300;   -5,260; 8340,640; 0,02453
1002,24; 7861,510;   -4,770; 8313,490; 0,02426
1002,79; 7828,400;   -5,520; 8265,560; 0,02358
1003,33; 7760,580;   -5,500; 8198,510; 0,02382
1003,88; 7732,490;   -4,710; 8157,370; 0,02322
1004,42; 7694,880;   -5,250; 8126,480; 0,02368
1004,97; 7644,850;   -5,360; 8088,080; 0,02446
1005,51; 7624,620;   -5,270; 8060,420; 0,02412
1006,06; 7573,320;   -5,560; 8019,320; 0,02483
1006,60; 7535,500;   -4,820; 7974,060; 0,02455
1007,15; 7496,610;   -5,070; 7930,910; 0,02444
1007,69; 7452,620;   -5,660; 7878,660; 0,02413
1008,24; 7397,240;   -4,790; 7815,370; 0,02386
1008,78; 7353,770;   -5,280; 7758,640; 0,02326
1009,33; 7313,940;   -5,310; 7697,590; 0,02219
1009,87; 7275,450;   -5,680; 7656,170; 0,02213
1010,41; 7214,560;   -5,290; 7609,820; 0,02315
1010,96; 7165,670;   -4,440; 7550,430; 0,02270
1011,50; 7101,550;   -5,310; 7482,870; 0,02270
1012,05; 7038,960;   -5,370; 7434,710; 0,02374
1012,59; 6987,360;   -4,900; 7377,050; 0,02355
1013,13; 6915,960;   -5,110; 7294,230; 0,02311
1013,68; 6848,970;   -5,120; 7216,760; 0,02270
1014,22; 6789,490;   -4,860; 7138,290; 0,02174
1014,77; 6717,760;   -5,290; 7053,510; 0,02116
1015,31; 6652,330;   -4,260; 6994,700; 0,02178
1015,85; 6568,710;   -5,630; 6904,320; 0,02162
1016,40; 6479,320;   -4,910; 6833,400; 0,02309
1016,94; 6395,310;   -5,040; 6751,090; 0,02349
1017,48; 6320,250;   -5,310; 6673,870; 0,02362
1018,03; 6269,330;   -4,820; 6631,000; 0,02434
1018,57; 6211,090;   -5,130; 6574,360; 0,02467
1019,11; 6147,240;   -4,550; 6505,360; 0,02457
1019,66; 6091,200;   -4,260; 6447,580; 0,02468
1020,20; 6053,710;   -5,830; 6392,570; 0,02363
1020,74; 5987,110;   -4,720; 6333,150; 0,02438
1021,29; 5946,260;   -4,850; 6284,130; 0,02398
1021,83; 5891,740;   -4,800; 6226,550; 0,02398
1022,37; 5839,580;   -5,270; 6163,060; 0,02339
1022,92; 5801,330;   -5,570; 6126,090; 0,02363
1023,46; 5747,430;   -4,520; 6074,300; 0,02400
1024,00; 5698,880;   -5,530; 6025,210; 0,02416
1024,55; 5657,810;   -5,410; 5965,350; 0,02297
1025,09; 5607,600;   -4,510; 5914,580; 0,02313
1025,63; 5571,530;   -5,340; 5872,370; 0,02282
1026,17; 5529,580;   -4,790; 5811,900; 0,02161
1026,72; 5479,380;   -4,770; 5764,390; 0,02200
1027,26; 5435,750;   -5,500; 5724,400; 0,02245
1027,80; 5396,300;   -4,570; 5683,740; 0,02252
1028,35; 5360,230;   -5,940; 5634,130; 0,02162
1028,89; 5320,210;   -4,800; 5591,810; 0,02160
1029,43; 5281,890;   -4,980; 5547,460; 0,02129
1029,97; 5244,980;   -5,060; 5493,690; 0,02010
1030,52; 5213,690;   -5,490; 5458,880; 0,01994
1031,06; 5168,710;   -4,960; 5411,390; 0,01991
1031,60; 5127,450;   -5,110; 5352,680; 0,01865
1032,14; 5067,560;   -4,520; 5304,390; 0,01982
1032,68; 5027,610;   -5,550; 5251,260; 0,01888
1033,23; 4970,670;   -5,100; 5190,860; 0,01881
1033,77; 4909,240;   -5,400; 5134,950; 0,01950
1034,31; 4844,870;   -4,640; 5072,840; 0,01995
1034,85; 4787,350;   -4,750; 5006,250; 0,01940
1035,39; 4716,720;   -5,450; 4935,570; 0,01967
1035,94; 4673,820;   -4,610; 4896,430; 0,02019
1036,48; 4616,910;   -4,590; 4842,050; 0,02066
1037,02; 4564,800;   -6,080; 4791,550; 0,02103
1037,56; 4521,720;   -3,780; 4726,710; 0,01924
1038,10; 4448,720;   -5,180; 4665,590; 0,02065
1038,64; 4393,090;   -5,810; 4609,200; 0,02083
1039,19; 4344,510;   -5,230; 4547,690; 0,01983
1039,73; 4281,330;   -5,860; 4495,100; 0,02113
1040,27; 4223,600;   -4,290; 4432,040; 0,02090
1040,81; 4165,610;   -5,060; 4381,730; 0,02194
1041,35; 4116,800;   -6,020; 4335,190; 0,02242
1041,89; 4075,930;   -4,480; 4279,930; 0,02119
1042,43; 4024,470;   -5,340; 4221,830; 0,02077
1042,97; 3973,510;   -4,380; 4176,120; 0,02158
1043,52; 3912,500;   -5,420; 4115,430; 0,02193
1044,06; 3860,020;   -5,150; 4058,050; 0,02170
1044,60; 3808,650;   -4,380; 4012,620; 0,02263
1045,14; 3754,010;   -5,750; 3949,170; 0,02198
1045,68; 3697,190;   -4,910; 3890,820; 0,02214
1046,22; 3643,590;   -4,780; 3843,850; 0,02321
1046,76; 3590,930;   -5,010; 3795,780; 0,02406
1047,30; 3537,360;   -4,880; 3732,430; 0,02328
1047,84; 3475,340;   -4,590; 3678,960; 0,02470
1048,38; 3428,260;   -5,560; 3625,460; 0,02425
1048,92; 3363,230;   -4,610; 3568,990; 0,02575
1049,46; 3320,680;   -5,800; 3523,700; 0,02573
1050,00; 3269,170;   -4,670; 3471,940; 0,02610
1050,55; 3221,090;   -5,000; 3420,480; 0,02604
1051,09; 3172,380;   -5,390; 3376,140; 0,02699
1051,63; 3128,350;   -4,750; 3327,820; 0,02681
1052,17; 3077,200;   -5,070; 3283,000; 0,02807
1052,71; 3036,300;   -4,460; 3227,490; 0,02648
1053,25; 2985,750;   -5,030; 3173,220; 0,02640
1053,79; 2936,460;   -5,520; 3125,020; 0,02698
1054,33; 2891,520;   -4,550; 3069,020; 0,02583
1054,87; 2846,740;   -4,930; 3018,350; 0,02538
1055,41; 2809,650;   -5,310; 2976,010; 0,02494
1055,95; 2752,530;   -4,590; 2919,290; 0,02550
1056,49; 2711,260;   -6,030; 2873,940; 0,02525
1057,03; 2667,210;   -4,650; 2829,130; 0,02555
1057,57; 2631,140;   -4,270; 2792,220; 0,02577
1058,11; 2601,010;   -5,080; 2757,720; 0,02536
1058,64; 2563,660;   -4,770; 2719,700; 0,02561
1059,18; 2534,000;   -4,870; 2686,890; 0,02540
1059,72; 2504,740;   -4,590; 2660,890; 0,02622
1060,26; 2471,760;   -4,240; 2627,560; 0,02650
1060,80; 2447,160;   -5,730; 2599,690; 0,02620
1061,34; 2421,240;   -4,430; 2573,130; 0,02638
1061,88; 2389,160;   -4,840; 2535,370; 0,02575
1062,42; 2357,640;   -4,610; 2510,780; 0,02728
1062,96; 2329,450;   -4,770; 2468,610; 0,02515
1063,50; 2296,430;   -5,430; 2446,470; 0,02742
1064,04; 2269,800;   -4,910; 2415,850; 0,02703
1064,58; 2244,600;   -5,260; 2388,940; 0,02700
1065,12; 2219,730;   -5,200; 2360,550; 0,02665
1065,65; 2188,170;   -4,920; 2338,170; 0,02873
1066,19; 2163,350;   -5,540; 2305,200; 0,02751
1066,73; 2133,760;   -4,260; 2281,470; 0,02901
1067,27; 2103,210;   -4,510; 2246,200; 0,02851
1067,81; 2081,810;   -5,100; 2218,780; 0,02761
1068,35; 2050,670;   -4,780; 2188,430; 0,02817
1068,89; 2023,630;   -5,510; 2156,780; 0,02760
1069,43; 1998,250;   -5,060; 2122,600; 0,02615
1069,96; 1971,030;   -5,350; 2097,400; 0,02692
1070,50; 1946,850;   -5,520; 2068,920; 0,02634
1071,04; 1920,720;   -4,520; 2042,170; 0,02657
1071,58; 1894,050;   -5,550; 2015,200; 0,02685
1072,12; 1867,210;   -4,770; 1989,580; 0,02750
1072,66; 1846,650;   -4,290; 1964,020; 0,02670
1073,19; 1820,520;   -5,430; 1939,580; 0,02743
1073,73; 1800,290;   -4,480; 1910,820; 0,02581
1074,27; 1772,550;   -5,010; 1879,510; 0,02538
1074,81; 1746,800;   -5,280; 1848,210; 0,02444
1075,35; 1723,750;   -4,800; 1829,310; 0,02574
1075,88; 1695,890;   -5,440; 1795,370; 0,02468
1076,42; 1671,830;   -4,210; 1773,500; 0,02558
1076,96; 1649,030;   -4,570; 1745,800; 0,02470
1077,50; 1623,730;   -5,640; 1719,410; 0,02478
1078,04; 1597,980;   -5,160; 1687,180; 0,02352
1078,57; 1573,170;   -4,780; 1665,110; 0,02459
1079,11; 1550,330;   -4,750; 1635,790; 0,02323
1079,65; 1530,340;   -4,580; 1609,870; 0,02194
1080,19; 1504,540;   -5,790; 1590,570; 0,02406
1080,72; 1481,570;   -4,810; 1564,520; 0,02358
1081,26; 1459,710;   -5,120; 1534,490; 0,02162
1081,80; 1443,820;   -5,790; 1518,170; 0,02172
1082,33; 1420,580;   -5,010; 1497,080; 0,02270
1082,87; 1397,560;   -5,560; 1470,010; 0,02186
1083,41; 1379,780;   -4,560; 1452,050; 0,02210
1083,95; 1351,890;   -4,820; 1426,860; 0,02336
1084,48; 1333,280;   -4,940; 1406,200; 0,02304
1085,02; 1313,680;   -4,930; 1386,740; 0,02342
1085,56; 1290,690;   -5,700; 1365,500; 0,02437
1086,09; 1276,880;   -4,990; 1351,630; 0,02461
1086,63; 1255,850;   -5,460; 1331,720; 0,02537
1087,17; 1237,940;   -5,390; 1306,910; 0,02345
1087,70; 1215,980;   -4,680; 1295,130; 0,02729
1088,24; 1198,350;   -5,080; 1270,930; 0,02543
1088,78; 1176,410;   -4,700; 1252,570; 0,02714
1089,31; 1160,230;   -5,220; 1228,340; 0,02467
1089,85; 1144,270;   -4,760; 1205,800; 0,02265
1090,39; 1126,580;   -5,270; 1192,140; 0,02445
1090,92; 1105,420;   -4,620; 1171,160; 0,02499
1091,46; 1087,270;   -5,630; 1154,930; 0,02609
1092,00; 1077,010;   -4,170; 1134,880; 0,02264
1092,53; 1054,220;   -5,190; 1113,880; 0,02379
1093,07; 1036,800;   -4,330; 1101,640; 0,02624
1093,60; 1017,650;   -5,340; 1079,240; 0,02539
1094,14; 1001,560;   -5,260; 1066,310; 0,02707
1094,68;  991,730;   -4,290; 1046,010; 0,02305
1095,21;  970,790;   -5,070; 1033,550; 0,02707
1095,75;  959,300;   -4,500; 1021,700; 0,02725
1096,28;  940,430;   -4,850; 1001,700; 0,02727
1096,82;  929,490;   -5,750;  984,510; 0,02483
1097,36;  915,280;   -4,760;  970,820; 0,02546
1097,89;  900,980;   -5,530;  954,570; 0,02494
1098,43;  889,050;   -5,200;  941,390; 0,02470
1098,96;  873,820;   -4,610;  926,920; 0,02549
1099,50;  858,520;   -5,040;  914,500; 0,02728
1100,03;  848,900;   -4,810;  902,710; 0,02655

